m (eV), gayy (GeV^(-1))
0.01, 1.693260837701292e-11
0.010004606691503637, 1.693242163265926e-11
0.010009215505167928, 1.693223013755448e-11
0.0100138264419705, 1.6932033885181206e-11
0.010018439502889411, 1.6931832869014326e-11
0.010023054688903176, 1.6931627082520965e-11
0.010027672000990756, 1.693141651916048e-11
0.010032291440131577, 1.6931201172384454e-11
0.010036913007305503, 1.6930981035636696e-11
0.010041536703492851, 1.6930756102353203e-11
0.010046162529674389, 1.69305263659622e-11
0.010050790486831348, 1.6930291819884065e-11
0.0100554205759454, 1.6930052457531385e-11
0.010060052797998669, 1.6929808272308907e-11
0.01006468715397373, 1.6929559257613538e-11
0.010069323644853629, 1.6929305406834344e-11
0.010073962271621838, 1.6929046713352533e-11
0.010078603035262302, 1.6928783170541444e-11
0.010083245936759404, 1.6928514771766544e-11
0.010087890977097997, 1.6928241510385423e-11
0.010092538157263378, 1.6927963379747763e-11
0.010097187478241296, 1.6927680373195366e-11
0.010101838941017955, 1.6927392484062098e-11
0.010106492546580022, 1.692709970567393e-11
0.010111148295914613, 1.6926802031348887e-11
0.010115806190009291, 1.6926499454397057e-11
0.010120466229852082, 1.6926191968120594e-11
0.01012512841643147, 1.6925879565813678e-11
0.01012979275073639, 1.6925562240762527e-11
0.010134459233756232, 1.6925239986245397e-11
0.010139127866480835, 1.6924912795532547e-11
0.010143798649900514, 1.692458066188624e-11
0.010148471585006024, 1.6924243578560747e-11
0.010153146672788578, 1.6923901538802323e-11
0.010157823914239843, 1.692355453584919e-11
0.01016250331035196, 1.6923202562931554e-11
0.010167184862117507, 1.6922845613271582e-11
0.010171868570529527, 1.6922483680083372e-11
0.010176554436581518, 1.6922116756572988e-11
0.010181242461267448, 1.6921744835938407e-11
0.010185932645581725, 1.6921367911369542e-11
0.010190624990519226, 1.6920985976048212e-11
0.010195319497075278, 1.6920599023148137e-11
0.010200016166245681, 1.6920207045834942e-11
0.01020471499902668, 1.6919810037266126e-11
0.010209415996414985, 1.691940799059107e-11
0.010214119159407757, 1.6919000898951025e-11
0.010218824489002633, 1.6918588755479085e-11
0.010223531986197697, 1.6918171553300203e-11
0.010228241651991493, 1.6917749285531168e-11
0.010232953487383024, 1.69173219452806e-11
0.010237667493371768, 1.6916889525648934e-11
0.010242383670957644, 1.6916452019728408e-11
0.010247102021141043, 1.6916009420603077e-11
0.010251822544922806, 1.6915561721348767e-11
0.010256545243304254, 1.691510891503311e-11
0.010261270117287152, 1.6914650994715482e-11
0.010265997167873735, 1.6914187953447038e-11
0.010270726396066689, 1.6913719784270687e-11
0.01027545780286918, 1.6913246480221068e-11
0.010280191389284826, 1.6912768034324562e-11
0.010284927156317703, 1.6912284439599272e-11
0.01028966510497235, 1.6911795689055026e-11
0.010294405236253783, 1.6911301775693335e-11
0.010299147551167467, 1.6910802692507418e-11
0.010303892050719334, 1.6910298432482185e-11
0.010308638735915771, 1.690978898859421e-11
0.01031338760776365, 1.690927435381174e-11
0.01031813866727029, 1.6908754521094677e-11
0.010322891915443475, 1.6908229483394568e-11
0.010327647353291452, 1.6907699233654602e-11
0.010332404981822947, 1.6907163764809585e-11
0.010337164802047136, 1.6906623069785957e-11
0.010341926814973664, 1.6906077141501752e-11
0.010346691021612635, 1.6905525972866607e-11
0.010351457422974638, 1.690496955678175e-11
0.010356226020070703, 1.6904407886139987e-11
0.010360996813912338, 1.690384095382569e-11
0.010365769805511522, 1.69032687527148e-11
0.010370544995880693, 1.6902691275674784e-11
0.010375322386032752, 1.690210851556468e-11
0.010380101976981068, 1.690152046523504e-11
0.010384883769739492, 1.6900927117527925e-11
0.010389667765322323, 1.6900328465276935e-11
0.010394453964744334, 1.6899724501307143e-11
0.010399242369020761, 1.6899115218435133e-11
0.010404032979167322, 1.689850060946895e-11
0.010408825796200191, 1.6897880667208133e-11
0.01041362082113601, 1.689725538444366e-11
0.010418418054991885, 1.6896624753957975e-11
0.01042321749878541, 1.6895988768524963e-11
0.010428019153534631, 1.6895347420909924e-11
0.010432823020258065, 1.6894700703869608e-11
0.010437629099974697, 1.6894048610152146e-11
0.010442437393703992, 1.689339113249709e-11
0.010447247902465874, 1.6892728263635386e-11
0.010452060627280742, 1.689205999628934e-11
0.010456875569169456, 1.6891386323172662e-11
0.010461692729153363, 1.6890707236990393e-11
0.010466512108254266, 1.689002273043894e-11
0.010471333707494446, 1.688933279620605e-11
0.010476157527896646, 1.6888637426970813e-11
0.010480983570484097, 1.6887936615403616e-11
0.010485811836280487, 1.6887230354166174e-11
0.010490642326309979, 1.6886518635911506e-11
0.010495475041597204, 1.6885801453283924e-11
0.010500309983167278, 1.6885078798919e-11
0.010505147152045778, 1.68843506654436e-11
0.010509986549258755, 1.6883617045475845e-11
0.01051482817583273, 1.6882877931625103e-11
0.01051967203279471, 1.6882133316491986e-11
0.010524518121172163, 1.6881383192668337e-11
0.010529366441993029, 1.688062755273722e-11
0.010534216996285723, 1.687986638927291e-11
0.010539069785079147, 1.6879099694840876e-11
0.010543924809402663, 1.6878327461997786e-11
0.010548782070286108, 1.6877549683291483e-11
0.010553641568759792, 1.6876766351260982e-11
0.010558503305854516, 1.6875977458436464e-11
0.010563367282601535, 1.6875182997339234e-11
0.010568233500032588, 1.6874382960481772e-11
0.010573101959179888, 1.6873577340367657e-11
0.010577972661076131, 1.68727661294916e-11
0.010582845606754479, 1.687194932033942e-11
0.010587720797248571, 1.6871126905388045e-11
0.01059259823359252, 1.6870298877105454e-11
0.010597477916820933, 1.6869465227950744e-11
0.010602359847968873, 1.6868625950374056e-11
0.010607244028071885, 1.6867781036816595e-11
0.01061213045816599, 1.6866930479710618e-11
0.010617019139287701, 1.6866074271479402e-11
0.010621910072473992, 1.6865212404537258e-11
0.010626803258762316, 1.6864344871289522e-11
0.010631698699190607, 1.6863471664132526e-11
0.010636596394797285, 1.6862592775453584e-11
0.010641496346621235, 1.6861708197631017e-11
0.010646398555701831, 1.6860817923034105e-11
0.010651303023078913, 1.6859921944023096e-11
0.01065620974979282, 1.685902025294919e-11
0.010661118736884355, 1.6858112842154523e-11
0.0106660299853948, 1.6857199703972176e-11
0.01067094349636592, 1.6856280830726137e-11
0.010675859270839968, 1.6855356214731316e-11
0.010680777309859666, 1.6854425848293506e-11
0.010685697614468222, 1.6853489723709426e-11
0.010690620185709317, 1.6852547833266625e-11
0.010695545024627127, 1.6851600169243556e-11
0.010700472132266298, 1.6850646723909517e-11
0.010705401509671959, 1.6849687489524658e-11
0.010710333157889714, 1.684872245833996e-11
0.010715267077965671, 1.6847751622597236e-11
0.010720203270946397, 1.6846774974529107e-11
0.010725141737878948, 1.684579250635901e-11
0.010730082479810861, 1.6844804210301162e-11
0.010735025497790167, 1.6843810078560586e-11
0.010739970792865365, 1.6842810103333047e-11
0.010744918366085439, 1.6841804276805094e-11
0.01074986821849987, 1.6840792591154026e-11
0.010754820351158607, 1.683977503854787e-11
0.010759774765112088, 1.6838751611145406e-11
0.01076473146141123, 1.683772230109611e-11
0.010769690441107451, 1.6836687100540182e-11
0.010774651705252635, 1.6835646001608508e-11
0.010779615254899158, 1.683459899642267e-11
0.010784581091099874, 1.683354607709493e-11
0.010789549214908137, 1.68324872357282e-11
0.010794519627377775, 1.683142246441606e-11
0.010799492329563103, 1.6830351755242728e-11
0.010804467322518916, 1.6829275100283064e-11
0.010809444607300512, 1.682819249160253e-11
0.010814424184963659, 1.6827103921257227e-11
0.010819406056564618, 1.6826009381293836e-11
0.010824390223160129, 1.6824908863749637e-11
0.010829376685807435, 1.6823802360652486e-11
0.010834365445564254, 1.6822689864020802e-11
0.01083935650348879, 1.682157136586357e-11
0.010844349860639736, 1.682044685818032e-11
0.010849345518076283, 1.6819316332961108e-11
0.010854343476858095, 1.6818179782186526e-11
0.010859343738045335, 1.681703719782767e-11
0.010864346302698641, 1.6815888571846143e-11
0.010869351171879161, 1.681473389619404e-11
0.010874358346648514, 1.681357316281393e-11
0.010879367828068814, 1.681240636363886e-11
0.010884379617202658, 1.6811233490592332e-11
0.01088939371511315, 1.6810054535588286e-11
0.010894410122863865, 1.6808869490531116e-11
0.010899428841518878, 1.6807678347315625e-11
0.010904449872142744, 1.6806481097827038e-11
0.010909473215800526, 1.6805277733940984e-11
0.010914498873557762, 1.680406824752347e-11
0.010919526846480489, 1.6802852630430913e-11
0.010924557135635225, 1.6801630874510065e-11
0.010929589742088996, 1.680040297159806e-11
0.010934624666909308, 1.679916891352236e-11
0.010939661911164156, 1.6797928692100793e-11
0.010944701475922032, 1.6796682299141487e-11
0.010949743362251928, 1.6795429726442884e-11
0.010954787571223317, 1.679417096579374e-11
0.010959834103906167, 1.6792906008973095e-11
0.010964882961370933, 1.6791634847750275e-11
0.010969934144688583, 1.6790357473884865e-11
0.010974987654930561, 1.6789073879126714e-11
0.01098004349316881, 1.6787784055215923e-11
0.010985101660475758, 1.6786487993882815e-11
0.010990162157924347, 1.678518568684795e-11
0.010995224986587997, 1.6783877125822086e-11
0.011000290147540625, 1.678256230250619e-11
0.01100535764185664, 1.678124120859143e-11
0.011010427470610961, 1.6779913835759126e-11
0.011015499634878988, 1.6778580175680787e-11
0.011020574135736618, 1.6777240220018074e-11
0.011025650974260242, 1.6775893960422782e-11
0.011030730151526759, 1.6774541388536842e-11
0.011035811668613553, 1.677318249599232e-11
0.011040895526598506, 1.6771817274411377e-11
0.01104598172655999, 1.677044571540628e-11
0.011051070269576899, 1.6769067810579374e-11
0.011056161156728592, 1.6767683551523094e-11
0.011061254389094945, 1.676629292981993e-11
0.01106634996775632, 1.676489593704242e-11
0.011071447893793593, 1.676349256475315e-11
0.011076548168288122, 1.6762082804504738e-11
0.011081650792321762, 1.6760666647839825e-11
0.011086755766976887, 1.6759244086291034e-11
0.01109186309333635, 1.675781511138101e-11
0.011096972772483506, 1.6756379714622365e-11
0.011102084805502213, 1.6754937887517694e-11
0.011107199193476823, 1.6753489621559544e-11
0.011112315937492201, 1.675203490823041e-11
0.011117435038633699, 1.6750573739002737e-11
0.011122556497987162, 1.674910610533888e-11
0.01112768031663896, 1.674763199869111e-11
0.011132806495675945, 1.6746151410501606e-11
0.011137935036185471, 1.6744664332202435e-11
0.01114306593925539, 1.674317075521555e-11
0.011148199205974072, 1.674167067095275e-11
0.011153334837430372, 1.6740164070815717e-11
0.011158472834713652, 1.6738650946195948e-11
0.011163613198913768, 1.67371312884748e-11
0.011168755931121101, 1.6735605089023428e-11
0.011173901032426508, 1.67340723392028e-11
0.011179048503921363, 1.673253303036369e-11
0.011184198346697533, 1.673098715384665e-11
0.011189350561847404, 1.6729434700982002e-11
0.01119450515046385, 1.6727875663089836e-11
0.011199662113640256, 1.6726310031479983e-11
0.0112048214524705, 1.6724737797452015e-11
0.011209983168048986, 1.672315895229524e-11
0.0112151472614706, 1.6721573487288656e-11
0.011220313733830745, 1.671998139370099e-11
0.011225482586225317, 1.671838266279063e-11
0.011230653819750734, 1.671677728580567e-11
0.011235827435503906, 1.6715165253983845e-11
0.011241003434582252, 1.6713546558552566e-11
0.01124618181808369, 1.671192119072887e-11
0.011251362587106661, 1.671028914171943e-11
0.011256545742750096, 1.6708650402720535e-11
0.011261731286113437, 1.670700496491809e-11
0.01126691921829663, 1.6705352819487576e-11
0.011272109540400137, 1.6703693957594067e-11
0.01127730225352492, 1.6702028370392213e-11
0.011282497358772443, 1.6700356049026197e-11
0.011287694857244682, 1.669867698462979e-11
0.011292894750044134, 1.6696991168326246e-11
0.011298097038273782, 1.6695298591228384e-11
0.011303301723037128, 1.6693599244438504e-11
0.011308508805438178, 1.6691893119048422e-11
0.011313718286581459, 1.6690180206139425e-11
0.01131893016757199, 1.668846049678229e-11
0.011324144449515312, 1.6686733982037225e-11
0.011329361133517459, 1.6685000652953924e-11
0.011334580220684998, 1.6683260500571484e-11
0.01133980171212499, 1.6681513515918453e-11
0.011345025608945005, 1.6679759690012777e-11
0.011350251912253126, 1.6677999013861798e-11
0.011355480623157957, 1.667623147846226e-11
0.011360711742768597, 1.6674457074800262e-11
0.011365945272194663, 1.6672675793851294e-11
0.011371181212546278, 1.667088762658017e-11
0.011376419564934093, 1.666909256394105e-11
0.011381660330469251, 1.6667290596877434e-11
0.011386903510263415, 1.6665481716322107e-11
0.011392149105428755, 1.6663665913197202e-11
0.011397397117077969, 1.666184317841408e-11
0.01140264754632425, 1.666001350287343e-11
0.011407900394281311, 1.6658176877465175e-11
0.01141315566206337, 1.6656333293068514e-11
0.011418413350785181, 1.6654482740551856e-11
0.011423673461561987, 1.6652625210772863e-11
0.011428935995509556, 1.6650760694578395e-11
0.011434200953744162, 1.664888918280453e-11
0.01143946833738261, 1.664701066627651e-11
0.011444738147542204, 1.6645125135808777e-11
0.011450010385340766, 1.664323258220494e-11
0.011455285051896628, 1.6641332996257742e-11
0.011460562148328659, 1.6639426368749063e-11
0.01146584167575622, 1.663751269044994e-11
0.011471123635299188, 1.6635591952120487e-11
0.011476408028077976, 1.6633664144509953e-11
0.011481694855213496, 1.6631729258356644e-11
0.011486984117827182, 1.662978728438797e-11
0.011492275817040981, 1.6627838213320388e-11
0.011497569953977356, 1.6625882035859426e-11
0.011502866529759301, 1.6623918742699616e-11
0.011508165545510311, 1.6621948324524545e-11
0.011513467002354399, 1.6619970772006808e-11
0.011518770901416113, 1.6617986075808002e-11
0.011524077243820501, 1.661599422657869e-11
0.011529386030693136, 1.661399521495844e-11
0.011534697263160105, 1.661198903157577e-11
0.011540010942348026, 1.660997566704815e-11
0.011545327069384024, 1.660795511198197e-11
0.011550645645395747, 1.6605927356972565e-11
0.011555966671511356, 1.6603892392604182e-11
0.011561290148859552, 1.6601850209449945e-11
0.011566616078569535, 1.6599800798071882e-11
0.01157194446177103, 1.65977441490209e-11
0.011577275299594283, 1.6595680252836737e-11
0.011582608593170073, 1.659360910004801e-11
0.011587944343629683, 1.6591530681172144e-11
0.011593282552104924, 1.6589444986715406e-11
0.01159862321972812, 1.658735200717286e-11
0.01160396634763214, 1.6585251733028365e-11
0.011609311936950351, 1.6583144154754566e-11
0.011614659988816653, 1.6581029262812876e-11
0.011620010504365457, 1.657890704765347e-11
0.01162536348473172, 1.6576777499715253e-11
0.0116307189310509, 1.6574640609425876e-11
0.011636076844458984, 1.6572496367201698e-11
0.01164143722609248, 1.657034476344778e-11
0.011646800077088435, 1.6568185788557886e-11
0.011652165398584402, 1.656601943291444e-11
0.011657533191718465, 1.656384568688856e-11
0.011662903457629223, 1.6561664540839985e-11
0.011668276197455823, 1.6559475985117105e-11
0.011673651412337912, 1.6557280010056948e-11
0.011679029103415674, 1.6555076605985137e-11
0.01168440927182981, 1.6552865763215902e-11
0.011689791918721566, 1.6550647472052058e-11
0.01169517704523269, 1.654842172278499e-11
0.011700564652505468, 1.654618850569466e-11
0.011705954741682708, 1.6543947811049552e-11
0.011711347313907753, 1.6541699629106703e-11
0.011716742370324464, 1.6539443950111652e-11
0.011722139912077231, 1.6537180764298468e-11
0.011727539940310965, 1.6534910061889686e-11
0.011732942456171123, 1.6532631833096356e-11
0.011738347460803673, 1.6530346068117958e-11
0.011743754955355113, 1.652805275714245e-11
0.01174916494097247, 1.652575189034623e-11
0.011754577418803308, 1.6523443457894108e-11
0.011759992389995711, 1.652112744993932e-11
0.011765409855698293, 1.65188038566235e-11
0.011770829817060192, 1.651647266807667e-11
0.01177625227523109, 1.6514133874417218e-11
0.01178167723136119, 1.6511787465751903e-11
0.011787104686601218, 1.650943343217582e-11
0.011792534642102436, 1.6507071763772406e-11
0.011797967099016647, 1.6504702450613416e-11
0.011803402058496169, 1.6502325482758903e-11
0.011808839521693856, 1.6499940850257222e-11
0.011814279489763088, 1.649754854314501e-11
0.011819721963857796, 1.649514855144716e-11
0.01182516694513242, 1.6492740865176813e-11
0.011830614434741942, 1.649032547433536e-11
0.011836064433841867, 1.648790236891242e-11
0.011841516943588254, 1.6485471538885815e-11
0.011846971965137674, 1.6483032974221563e-11
0.011852429499647234, 1.6480586664873866e-11
0.011857889548274577, 1.6478132600785106e-11
0.011863352112177886, 1.6475670771885814e-11
0.011868817192515866, 1.6473201168094664e-11
0.011874284790447756, 1.6470723779318462e-11
0.011879754907133349, 1.6468238595452126e-11
0.011885227543732946, 1.6465745606378683e-11
0.011890702701407395, 1.6463244801969232e-11
0.011896180381318079, 1.6460736172082976e-11
0.011901660584626906, 1.6458219706567155e-11
0.011907143312496342, 1.645569539525705e-11
0.011912628566089368, 1.645316322797599e-11
0.011918116346569498, 1.6450623194535335e-11
0.011923606655100808, 1.6448075284734417e-11
0.011929099492847883, 1.6445519488360584e-11
0.011934594860975856, 1.6442955795189157e-11
0.011940092760650394, 1.6440384194983423e-11
0.011945593193037701, 1.6437804677494606e-11
0.011951096159304526, 1.643521723246188e-11
0.011956601660618148, 1.6432621849612335e-11
0.011962109698146374, 1.643001851866097e-11
0.011967620273057575, 1.6427407229310677e-11
0.011973133386520639, 1.6424787971252228e-11
0.011978649039704997, 1.6422160734164265e-11
0.011984167233780615, 1.6419525507713282e-11
0.011989687969918016, 1.64168822815536e-11
0.011995211249288243, 1.641423104532738e-11
0.012000737073062885, 1.6411571788664583e-11
0.012006265442414064, 1.640890450118297e-11
0.012011796358514461, 1.640622917248808e-11
0.012017329822537278, 1.640354579217322e-11
0.012022865835656265, 1.6400854349819458e-11
0.012028404399045707, 1.6398154834995592e-11
0.012033945513880444, 1.6395447237258155e-11
0.012039489181335846, 1.639273154615137e-11
0.012045035402587823, 1.6390007751207193e-11
0.012050584178812827, 1.6387275841945226e-11
0.012056135511187865, 1.638453580787276e-11
0.012061689400890474, 1.6381787638484743e-11
0.012067245849098731, 1.637903132326374e-11
0.012072804856991259, 1.6376266851679973e-11
0.012078366425747234, 1.6373494213191248e-11
0.012083930556546362, 1.6370713397242987e-11
0.0120894972505689, 1.6367924393268183e-11
0.012095066508995637, 1.6365127190687406e-11
0.012100638333007927, 1.6362321778908773e-11
0.012106212723787651, 1.6359508147327943e-11
0.012111789682517238, 1.63566862853281e-11
0.012117369210379661, 1.6353856182279953e-11
0.012122951308558448, 1.6351017827541673e-11
0.01212853597823766, 1.6348171210458954e-11
0.01213412322060191, 1.6345316320364926e-11
0.012139713036836346, 1.634245314658019e-11
0.012145305428126684, 1.633958167841278e-11
0.012150900395659164, 1.6336701905158154e-11
0.012156497940620585, 1.6333813816099182e-11
0.012162098064198282, 1.633091740050612e-11
0.012167700767580156, 1.6328012647636614e-11
0.012173306051954635, 1.6325099546735677e-11
0.012178913918510705, 1.6322178087035675e-11
0.01218452436843789, 1.6319248257756294e-11
0.012190137402926283, 1.631631004810456e-11
0.012195753023166505, 1.6313363447274803e-11
0.012201371230349731, 1.631040844444863e-11
0.012206992025667681, 1.6307445028794963e-11
0.012212615410312641, 1.6304473189469947e-11
0.012218241385477427, 1.6301492915617e-11
0.012223869952355412, 1.6298504196366758e-11
0.012229501112140512, 1.6295507020837102e-11
0.012235134866027213, 1.6292501378133085e-11
0.01224077121521053, 1.628948725734698e-11
0.012246410160886036, 1.6286464647558207e-11
0.01225205170424985, 1.6283433537833373e-11
0.012257695846498657, 1.628039391722621e-11
0.01226334258882968, 1.6277345774777596e-11
0.012268991932440692, 1.6274289099515508e-11
0.012274643878530023, 1.6271223880455042e-11
0.01228029842829656, 1.6268150106598362e-11
0.012285955582939736, 1.6265067766934723e-11
0.012291615343659527, 1.626197685044042e-11
