m (eV), gayy (GeV^(-1))
0.01, 3.352572152175493e-11
0.010004606691503637, 3.352536463162368e-11
0.010009215505167928, 3.3524998353025984e-11
0.0100138264419705, 3.352462267307898e-11
0.010018439502889411, 3.352423757888448e-11
0.010023054688903176, 3.352384305752901e-11
0.010027672000990756, 3.352343909608369e-11
0.010032291440131577, 3.352302568160432e-11
0.010036913007305503, 3.352260280113128e-11
0.010041536703492851, 3.352217044168956e-11
0.010046162529674389, 3.352172859028873e-11
0.010050790486831348, 3.3521277233922914e-11
0.0100554205759454, 3.3520816359570776e-11
0.010060052797998669, 3.3520345954195504e-11
0.01006468715397373, 3.3519866004744816e-11
0.010069323644853629, 3.351937649815088e-11
0.010073962271621838, 3.351887742133036e-11
0.010078603035262302, 3.351836876118436e-11
0.010083245936759404, 3.351785050459844e-11
0.010087890977097997, 3.351732263844255e-11
0.010092538157263378, 3.3516785149571053e-11
0.010097187478241296, 3.351623802482268e-11
0.010101838941017955, 3.3515681251020545e-11
0.010106492546580022, 3.3515114814972094e-11
0.010111148295914613, 3.351453870346908e-11
0.010115806190009291, 3.351395290328761e-11
0.010120466229852082, 3.3513357401188046e-11
0.01012512841643147, 3.351275218391502e-11
0.01012979275073639, 3.351213723819742e-11
0.010134459233756232, 3.3511512550748396e-11
0.010139127866480835, 3.351087810826529e-11
0.010143798649900514, 3.3510233897429625e-11
0.010148471585006024, 3.350957990490715e-11
0.010153146672788578, 3.350891611734774e-11
0.010157823914239843, 3.3508242521385436e-11
0.01016250331035196, 3.3507559103638366e-11
0.010167184862117507, 3.3506865850708824e-11
0.010171868570529527, 3.350616274918313e-11
0.010176554436581518, 3.350544978563174e-11
0.010181242461267448, 3.3504726946609093e-11
0.010185932645581725, 3.350399421865371e-11
0.010190624990519226, 3.35032515882881e-11
0.010195319497075278, 3.350249904201879e-11
0.010200016166245681, 3.350173656633626e-11
0.01020471499902668, 3.350096414771496e-11
0.010209415996414985, 3.3500181772613286e-11
0.010214119159407757, 3.349938942747356e-11
0.010218824489002633, 3.3498587098721976e-11
0.010223531986197697, 3.349777477276866e-11
0.010228241651991493, 3.349695243600756e-11
0.010232953487383024, 3.349612007481649e-11
0.010237667493371768, 3.34952776755571e-11
0.010242383670957644, 3.349442522457483e-11
0.010247102021141043, 3.3493562708198934e-11
0.010251822544922806, 3.3492690112742424e-11
0.010256545243304254, 3.349180742450205e-11
0.010261270117287152, 3.349091462975834e-11
0.010265997167873735, 3.3490011714775484e-11
0.010270726396066689, 3.348909866580142e-11
0.01027545780286918, 3.3488175469067725e-11
0.010280191389284826, 3.348724211078966e-11
0.010284927156317703, 3.34862985771661e-11
0.01028966510497235, 3.348534485437958e-11
0.010294405236253783, 3.348438092859619e-11
0.010299147551167467, 3.348340678596565e-11
0.010303892050719334, 3.3482422412621205e-11
0.010308638735915771, 3.3481427794679665e-11
0.01031338760776365, 3.348042291824137e-11
0.01031813866727029, 3.347940776939015e-11
0.010322891915443475, 3.347838233419334e-11
0.010327647353291452, 3.347734659870174e-11
0.010332404981822947, 3.3476300548949586e-11
0.010337164802047136, 3.347524417095455e-11
0.010341926814973664, 3.347417745071775e-11
0.010346691021612635, 3.3473100374223625e-11
0.010351457422974638, 3.347201292744005e-11
0.010356226020070703, 3.347091509631823e-11
0.010360996813912338, 3.34698068667927e-11
0.010365769805511522, 3.346868822478132e-11
0.010370544995880693, 3.346755915618524e-11
0.010375322386032752, 3.3466419646888885e-11
0.010380101976981068, 3.346526968275996e-11
0.010384883769739492, 3.3464109249649345e-11
0.010389667765322323, 3.346293833339121e-11
0.010394453964744334, 3.3461756919802894e-11
0.010399242369020761, 3.346056499468491e-11
0.010404032979167322, 3.345936254382093e-11
0.010408825796200191, 3.345814955297777e-11
0.01041362082113601, 3.345692600790539e-11
0.010418418054991885, 3.34556918943368e-11
0.01042321749878541, 3.345444719798817e-11
0.010428019153534631, 3.345319190455863e-11
0.010432823020258065, 3.3451925999730435e-11
0.010437629099974697, 3.3450649469168835e-11
0.010442437393703992, 3.344936229852207e-11
0.010447247902465874, 3.3448064473421384e-11
0.010452060627280742, 3.344675597948098e-11
0.010456875569169456, 3.344543680229799e-11
0.010461692729153363, 3.34441069274525e-11
0.010466512108254266, 3.344276634050748e-11
0.010471333707494446, 3.3441415027008764e-11
0.010476157527896646, 3.344005297248511e-11
0.010480983570484097, 3.343868016244805e-11
0.010485811836280487, 3.3437296582392006e-11
0.010490642326309979, 3.3435902217794163e-11
0.010495475041597204, 3.343449705411452e-11
0.010500309983167278, 3.34330810767958e-11
0.010505147152045778, 3.3431654271263516e-11
0.010509986549258755, 3.343021662292588e-11
0.01051482817583273, 3.342876811717384e-11
0.01051967203279471, 3.3427308739380966e-11
0.010524518121172163, 3.342583847490358e-11
0.010529366441993029, 3.3424357309080586e-11
0.010534216996285723, 3.3422865227233525e-11
0.010539069785079147, 3.3421362214666556e-11
0.010543924809402663, 3.341984825666642e-11
0.010548782070286108, 3.3418323338502425e-11
0.010553641568759792, 3.341678744542641e-11
0.010558503305854516, 3.341524056267276e-11
0.010563367282601535, 3.341368267545834e-11
0.010568233500032588, 3.3412113768982526e-11
0.010573101959179888, 3.341053382842712e-11
0.010577972661076131, 3.340894283895641e-11
0.010582845606754479, 3.340734078571708e-11
0.010587720797248571, 3.340572765383824e-11
0.01059259823359252, 3.340410342843135e-11
0.010597477916820933, 3.340246809459026e-11
0.010602359847968873, 3.340082163739114e-11
0.010607244028071885, 3.3399164041892495e-11
0.01061213045816599, 3.3397495293135145e-11
0.010617019139287701, 3.339581537614215e-11
0.010621910072473992, 3.3394124275918866e-11
0.010626803258762316, 3.339242197745288e-11
0.010631698699190607, 3.3390708465713996e-11
0.010636596394797285, 3.33889837256542e-11
0.010641496346621235, 3.3387247742207664e-11
0.010646398555701831, 3.338550050029073e-11
0.010651303023078913, 3.3383741984801894e-11
0.01065620974979282, 3.338197218062169e-11
0.010661118736884355, 3.338019107261285e-11
0.0106660299853948, 3.337839864562008e-11
0.01067094349636592, 3.337659488447023e-11
0.010675859270839968, 3.3374779773972125e-11
0.010680777309859666, 3.3372953298916606e-11
0.010685697614468222, 3.3371115444076533e-11
0.010690620185709317, 3.3369266194206705e-11
0.010695545024627127, 3.33674055340439e-11
0.010700472132266298, 3.3365533448306795e-11
0.010705401509671959, 3.3363649921696e-11
0.010710333157889714, 3.3361754938894003e-11
0.010715267077965671, 3.335984848456514e-11
0.010720203270946397, 3.335793054335561e-11
0.010725141737878948, 3.335600109989344e-11
0.010730082479810861, 3.3354060138788445e-11
0.010735025497790167, 3.335210764463223e-11
0.010739970792865365, 3.3350143601998163e-11
0.010744918366085439, 3.334816799544134e-11
0.01074986821849987, 3.3346180809498585e-11
0.010754820351158607, 3.3344182028688396e-11
0.010759774765112088, 3.334217163751101e-11
0.01076473146141123, 3.3340149620448235e-11
0.010769690441107451, 3.3338115961963576e-11
0.010774651705252635, 3.333607064650211e-11
0.010779615254899158, 3.333401365849054e-11
0.010784581091099874, 3.33319449823371e-11
0.010789549214908137, 3.332986460243161e-11
0.010794519627377775, 3.3327772503145386e-11
0.010799492329563103, 3.3325668668831266e-11
0.010804467322518916, 3.332355308382358e-11
0.010809444607300512, 3.33214257324381e-11
0.010814424184963659, 3.3319286598972043e-11
0.010819406056564618, 3.331713566770405e-11
0.010824390223160129, 3.3314972922894185e-11
0.010829376685807435, 3.331279834878383e-11
0.010834365445564254, 3.331061192959579e-11
0.01083935650348879, 3.330841364953416e-11
0.010844349860639736, 3.3306203492784344e-11
0.010849345518076283, 3.330398144351307e-11
0.010854343476858095, 3.33017474858683e-11
0.010859343738045335, 3.3299501603979276e-11
0.010864346302698641, 3.329724378195642e-11
0.010869351171879161, 3.329497400389141e-11
0.010874358346648514, 3.329269225385706e-11
0.010879367828068814, 3.32903985159074e-11
0.010884379617202658, 3.328809277407752e-11
0.01088939371511315, 3.32857750123837e-11
0.010894410122863865, 3.328344521482327e-11
0.010899428841518878, 3.3281103365374657e-11
0.010904449872142744, 3.3278749447997325e-11
0.010909473215800526, 3.327638344663177e-11
0.010914498873557762, 3.3274005345199476e-11
0.010919526846480489, 3.3271615127602975e-11
0.010924557135635225, 3.326921277772569e-11
0.010929589742088996, 3.3266798279432014e-11
0.010934624666909308, 3.3264371616567265e-11
0.010939661911164156, 3.326193277295765e-11
0.010944701475922032, 3.325948173241025e-11
0.010949743362251928, 3.3257018478713015e-11
0.010954787571223317, 3.325454299563469e-11
0.010959834103906167, 3.325205526692487e-11
0.010964882961370933, 3.324955527631391e-11
0.010969934144688583, 3.324704300751292e-11
0.010974987654930561, 3.3244518444213783e-11
0.01098004349316881, 3.324198157008908e-11
0.010985101660475758, 3.323943236879209e-11
0.010990162157924347, 3.323687082395679e-11
0.010995224986587997, 3.323429691919776e-11
0.011000290147540625, 3.323171063811025e-11
0.01100535764185664, 3.322911196427012e-11
0.011010427470610961, 3.3226500881233796e-11
0.011015499634878988, 3.322387737253826e-11
0.011020574135736618, 3.3221241421701066e-11
0.011025650974260242, 3.321859301222026e-11
0.011030730151526759, 3.3215932127574386e-11
0.011035811668613553, 3.321325875122247e-11
0.011040895526598506, 3.3210572866603984e-11
0.01104598172655999, 3.3207874457138814e-11
0.011051070269576899, 3.3205163506227284e-11
0.011056161156728592, 3.320243999725007e-11
0.011061254389094945, 3.31997039135682e-11
0.01106634996775632, 3.319695523852307e-11
0.011071447893793593, 3.3194193955436376e-11
0.011076548168288122, 3.3191420047610095e-11
0.011081650792321762, 3.3188633498326504e-11
0.011086755766976887, 3.318583429084807e-11
0.01109186309333635, 3.318302240841754e-11
0.011096972772483506, 3.318019783425783e-11
0.011102084805502213, 3.317736055157203e-11
0.011107199193476823, 3.31745105435434e-11
0.011112315937492201, 3.3171647793335323e-11
0.011117435038633699, 3.31687722840913e-11
0.011122556497987162, 3.316588399893489e-11
0.01112768031663896, 3.316298292096976e-11
0.011132806495675945, 3.316006903327955e-11
0.011137935036185471, 3.315714231892798e-11
0.01114306593925539, 3.3154202760958735e-11
0.011148199205974072, 3.3151250342395466e-11
0.011153334837430372, 3.314828504624178e-11
0.011158472834713652, 3.31453068554812e-11
0.011163613198913768, 3.314231575307716e-11
0.011168755931121101, 3.313931172197295e-11
0.011173901032426508, 3.313629474509173e-11
0.011179048503921363, 3.313326480533648e-11
0.011184198346697533, 3.313022188559002e-11
0.011189350561847404, 3.312716596871489e-11
0.01119450515046385, 3.312409703755345e-11
0.011199662113640256, 3.3121015074927773e-11
0.0112048214524705, 3.3117920063639644e-11
0.011209983168048986, 3.311481198647053e-11
0.0112151472614706, 3.311169082618158e-11
0.011220313733830745, 3.3108556565513596e-11
0.011225482586225317, 3.3105409187186955e-11
0.011230653819750734, 3.310224867390168e-11
0.011235827435503906, 3.3099075008337325e-11
0.011241003434582252, 3.309588817315303e-11
0.01124618181808369, 3.3092688150987435e-11
0.011251362587106661, 3.308947492445869e-11
0.011256545742750096, 3.3086248476164404e-11
0.011261731286113437, 3.3083008788681683e-11
0.01126691921829663, 3.307975584456702e-11
0.011272109540400137, 3.307648962635633e-11
0.01127730225352492, 3.307321011656492e-11
0.011282497358772443, 3.306991729768743e-11
0.011287694857244682, 3.306661115219787e-11
0.011292894750044134, 3.3063291662549524e-11
0.011298097038273782, 3.3059958811174986e-11
0.011303301723037128, 3.305661258048612e-11
0.011308508805438178, 3.3053252952874e-11
0.011313718286581459, 3.3049879910708936e-11
0.01131893016757199, 3.304649343634043e-11
0.011324144449515312, 3.304309351209714e-11
0.011329361133517459, 3.3039680120286866e-11
0.011334580220684998, 3.303625324319654e-11
0.01133980171212499, 3.303281286309219e-11
0.011345025608945005, 3.302935896221888e-11
0.011350251912253126, 3.302589152280077e-11
0.011355480623157957, 3.302241052704101e-11
0.011360711742768597, 3.301891595712175e-11
0.011365945272194663, 3.3015407795204115e-11
0.011371181212546278, 3.3011886023428205e-11
0.011376419564934093, 3.300835062391299e-11
0.011381660330469251, 3.3004801578756395e-11
0.011386903510263415, 3.300123887003519e-11
0.011392149105428755, 3.2997662479805026e-11
0.011397397117077969, 3.299407239010032e-11
0.01140264754632425, 3.299046858293436e-11
0.011407900394281311, 3.298685104029918e-11
0.01141315566206337, 3.298321974416557e-11
0.011418413350785181, 3.2979574676483044e-11
0.011423673461561987, 3.297591581917983e-11
0.011428935995509556, 3.297224315416284e-11
0.011434200953744162, 3.296855666331763e-11
0.01143946833738261, 3.2964856328508396e-11
0.011444738147542204, 3.2961142131577916e-11
0.011450010385340766, 3.2957414054347584e-11
0.011455285051896628, 3.295367207861733e-11
0.011460562148328659, 3.294991618616561e-11
0.01146584167575622, 3.294614635874942e-11
0.011471123635299188, 3.294236257810419e-11
0.011476408028077976, 3.293856482594383e-11
0.011481694855213496, 3.29347530839607e-11
0.011486984117827182, 3.293092733382555e-11
0.011492275817040981, 3.292708755718749e-11
0.011497569953977356, 3.292323373567402e-11
0.011502866529759301, 3.291936585089097e-11
0.011508165545510311, 3.2915483884422465e-11
0.011513467002354399, 3.291158781783091e-11
0.011518770901416113, 3.290767763265699e-11
0.011524077243820501, 3.290375331041957e-11
0.011529386030693136, 3.2899814832615784e-11
0.011534697263160105, 3.289586218072092e-11
0.011540010942348026, 3.28918953361884e-11
0.011545327069384024, 3.288791428044983e-11
0.011550645645395747, 3.288391899491487e-11
0.011555966671511356, 3.2879909460971276e-11
0.011561290148859552, 3.287588565998489e-11
0.011566616078569535, 3.2871847573299526e-11
0.01157194446177103, 3.2867795182237064e-11
0.011577275299594283, 3.286372846809732e-11
0.011582608593170073, 3.2859647412158075e-11
0.011587944343629683, 3.285555199567503e-11
0.011593282552104924, 3.2851442199881824e-11
0.01159862321972812, 3.2847318005989936e-11
0.01160396634763214, 3.28431793951887e-11
0.011609311936950351, 3.2839026348645287e-11
0.011614659988816653, 3.283485884750466e-11
0.011620010504365457, 3.283067687288958e-11
0.01162536348473172, 3.2826480405900533e-11
0.0116307189310509, 3.282226942761571e-11
0.011636076844458984, 3.2818043919091045e-11
0.01164143722609248, 3.281380386136012e-11
0.011646800077088435, 3.2809549235434155e-11
0.011652165398584402, 3.2805280022301995e-11
0.011657533191718465, 3.280099620293011e-11
0.011662903457629223, 3.279669775826249e-11
0.011668276197455823, 3.279238466922068e-11
0.011673651412337912, 3.278805691670377e-11
0.011679029103415674, 3.278371448158831e-11
0.01168440927182981, 3.2779357344728334e-11
0.011689791918721566, 3.2774985486955296e-11
0.01169517704523269, 3.277059888907806e-11
0.011700564652505468, 3.2766197531882913e-11
0.011705954741682708, 3.2761781396133466e-11
0.011711347313907753, 3.275735046257068e-11
0.011716742370324464, 3.27529047119128e-11
0.011722139912077231, 3.274844412485538e-11
0.011727539940310965, 3.2743968682071237e-11
0.011732942456171123, 3.2739478364210374e-11
0.011738347460803673, 3.2734973151900037e-11
0.011743754955355113, 3.2730453025744616e-11
0.01174916494097247, 3.27259179663257e-11
0.011754577418803308, 3.272136795420195e-11
0.011759992389995711, 3.271680296990914e-11
0.011765409855698293, 3.2712222993960134e-11
0.011770829817060192, 3.270762800684482e-11
0.01177625227523109, 3.27030179890301e-11
0.01178167723136119, 3.269839292095988e-11
0.011787104686601218, 3.269375278305503e-11
0.011792534642102436, 3.268909755571335e-11
0.011797967099016647, 3.2684427219309556e-11
0.011803402058496169, 3.267974175419525e-11
0.011808839521693856, 3.267504114069889e-11
0.011814279489763088, 3.2670325359125764e-11
0.011819721963857796, 3.266559438975797e-11
0.01182516694513242, 3.2660848212854366e-11
0.011830614434741942, 3.265608680865058e-11
0.011836064433841867, 3.265131015735897e-11
0.011841516943588254, 3.264651823916856e-11
0.011846971965137674, 3.2641711034245066e-11
0.011852429499647234, 3.2636888522730846e-11
0.011857889548274577, 3.263205068474488e-11
0.011863352112177886, 3.2627197500382735e-11
0.011868817192515866, 3.26223289497165e-11
0.011874284790447756, 3.2617445012794867e-11
0.011879754907133349, 3.261254566964298e-11
0.011885227543732946, 3.2607630900262504e-11
0.011890702701407395, 3.260270068463152e-11
0.011896180381318079, 3.259775500270457e-11
0.011901660584626906, 3.2592793834412585e-11
0.011907143312496342, 3.2587817159662855e-11
0.011912628566089368, 3.258282495833901e-11
0.011918116346569498, 3.2577817210301034e-11
0.011923606655100808, 3.2572793895385144e-11
0.011929099492847883, 3.256775499340389e-11
0.011934594860975856, 3.256270048414599e-11
0.011940092760650394, 3.255763034737643e-11
0.011945593193037701, 3.255254456283632e-11
0.011951096159304526, 3.254744311024295e-11
0.011956601660618148, 3.254232596928975e-11
0.011962109698146374, 3.253719311964622e-11
0.011967620273057575, 3.253204454095795e-11
0.011973133386520639, 3.252688021284654e-11
0.011978649039704997, 3.252170011490965e-11
0.011984167233780615, 3.251650422672092e-11
0.011989687969918016, 3.251129252782989e-11
0.011995211249288243, 3.2506064997762124e-11
0.012000737073062885, 3.2500821616019e-11
0.012006265442414064, 3.249556236207785e-11
0.012011796358514461, 3.2490287215391796e-11
0.012017329822537278, 3.248499615538981e-11
0.012022865835656265, 3.247968916147665e-11
0.012028404399045707, 3.2474366213032843e-11
0.012033945513880444, 3.2469027289414624e-11
0.012039489181335846, 3.2463672369953973e-11
0.012045035402587823, 3.245830143395854e-11
0.012050584178812827, 3.245291446071162e-11
0.012056135511187865, 3.244751142947213e-11
0.012061689400890474, 3.244209231947459e-11
0.012067245849098731, 3.243665710992908e-11
0.012072804856991259, 3.243120578002125e-11
0.012078366425747234, 3.242573830891221e-11
0.012083930556546362, 3.242025467573858e-11
0.0120894972505689, 3.2414754859612444e-11
0.012095066508995637, 3.2409238839621306e-11
0.012100638333007927, 3.240370659482805e-11
0.012106212723787651, 3.239815810427096e-11
0.012111789682517238, 3.2392593346963637e-11
0.012117369210379661, 3.238701230189501e-11
0.012122951308558448, 3.238141494802927e-11
0.01212853597823766, 3.237580126430589e-11
0.01213412322060191, 3.237017122963955e-11
0.012139713036836346, 3.236452482292016e-11
0.012145305428126684, 3.2358862023012754e-11
0.012150900395659164, 3.2353182808757534e-11
0.012156497940620585, 3.2347487158969826e-11
0.012162098064198282, 3.2341775052440005e-11
0.012167700767580156, 3.2336046467933527e-11
0.012173306051954635, 3.233030138419087e-11
0.012178913918510705, 3.232453977992752e-11
0.01218452436843789, 3.2318761633833904e-11
0.012190137402926283, 3.2312966924575393e-11
0.012195753023166505, 3.2307155630792305e-11
0.012201371230349731, 3.230132773109978e-11
0.012206992025667681, 3.22954832040879e-11
0.012212615410312641, 3.2289622028321456e-11
0.012218241385477427, 3.228374418234013e-11
0.012223869952355412, 3.22778496446583e-11
0.012229501112140512, 3.227193839376516e-11
0.012235134866027213, 3.226601040812453e-11
0.01224077121521053, 3.226006566617494e-11
0.012246410160886036, 3.2254104146329584e-11
0.01225205170424985, 3.2248125826976275e-11
0.012257695846498657, 3.2242130686477376e-11
0.01226334258882968, 3.223611870316986e-11
0.012268991932440692, 3.223008985536519e-11
0.012274643878530023, 3.222404412134939e-11
0.01228029842829656, 3.221798147938288e-11
0.012285955582939736, 3.2211901907700574e-11
0.012291615343659527, 3.22058053845118e-11
0.012297277711656486, 3.219969188800024e-11
0.0123029426881317, 3.219356139632397e-11
0.012308610274286815, 3.218741388761536e-11
0.012314280471324027, 3.218124933998107e-11
