m (eV), gayy (GeV^(-1))
0.01, 1.8800944911264903e-12
0.010004606691503637, 1.8799820262930515e-12
0.010009215505167928, 1.879868907170322e-12
0.0100138264419705, 1.8797551328837474e-12
0.010018439502889411, 1.879640702557739e-12
0.010023054688903176, 1.87952561531567e-12
0.010027672000990756, 1.879409870279877e-12
0.010032291440131577, 1.8792934665716594e-12
0.010036913007305503, 1.8791764033112735e-12
0.010041536703492851, 1.879058679617938e-12
0.010046162529674389, 1.8789402946098264e-12
0.010050790486831348, 1.8788212474040703e-12
0.0100554205759454, 1.8787015371167566e-12
0.010060052797998669, 1.8785811628629252e-12
0.01006468715397373, 1.8784601237565704e-12
0.010069323644853629, 1.8783384189106358e-12
0.010073962271621838, 1.8782160474370186e-12
0.010078603035262302, 1.878093008446562e-12
0.010083245936759404, 1.8779693010490604e-12
0.010087890977097997, 1.8778449243532522e-12
0.010092538157263378, 1.877719877466823e-12
0.010097187478241296, 1.8775941594964024e-12
0.010101838941017955, 1.8774677695475623e-12
0.010106492546580022, 1.877340706724818e-12
0.010111148295914613, 1.8772129701316244e-12
0.010115806190009291, 1.8770845588703756e-12
0.010120466229852082, 1.8769554720424055e-12
0.01012512841643147, 1.8768257087479836e-12
0.01012979275073639, 1.8766952680863154e-12
0.010134459233756232, 1.8765641491555417e-12
0.010139127866480835, 1.8764323510527352e-12
0.010143798649900514, 1.8762998728739018e-12
0.010148471585006024, 1.8761667137139786e-12
0.010153146672788578, 1.8760328726668305e-12
0.010157823914239843, 1.875898348825253e-12
0.01016250331035196, 1.875763141280967e-12
0.010167184862117507, 1.8756272491246197e-12
0.010171868570529527, 1.875490671445784e-12
0.010176554436581518, 1.875353407332955e-12
0.010181242461267448, 1.8752154558735498e-12
0.010185932645581725, 1.8750768161539075e-12
0.010190624990519226, 1.874937487259286e-12
0.010195319497075278, 1.874797468273862e-12
0.010200016166245681, 1.8746567582807296e-12
0.01020471499902668, 1.874515356361897e-12
0.010209415996414985, 1.874373261598291e-12
0.010214119159407757, 1.874230473069747e-12
0.010218824489002633, 1.8740869898550155e-12
0.010223531986197697, 1.8739428110317572e-12
0.010228241651991493, 1.873797935676543e-12
0.010232953487383024, 1.8736523628648512e-12
0.010237667493371768, 1.8735060916710666e-12
0.010242383670957644, 1.8733591211684823e-12
0.010247102021141043, 1.8732114504292933e-12
0.010251822544922806, 1.8730630785245995e-12
0.010256545243304254, 1.8729140045244027e-12
0.010261270117287152, 1.8727642274976046e-12
0.010265997167873735, 1.8726137465120065e-12
0.010270726396066689, 1.8724625606343096e-12
0.01027545780286918, 1.8723106689301096e-12
0.010280191389284826, 1.8721580704639e-12
0.010284927156317703, 1.8720047642990666e-12
0.01028966510497235, 1.8718507494978904e-12
0.010294405236253783, 1.8716960251215426e-12
0.010299147551167467, 1.8715405902300856e-12
0.010303892050719334, 1.8713844438824713e-12
0.010308638735915771, 1.871227585136539e-12
0.01031338760776365, 1.8710700130490153e-12
0.01031813866727029, 1.8709117266755124e-12
0.010322891915443475, 1.8707527250705247e-12
0.010327647353291452, 1.8705930072874322e-12
0.010332404981822947, 1.8704325723784946e-12
0.010337164802047136, 1.8702714193948516e-12
0.010341926814973664, 1.870109547386524e-12
0.010346691021612635, 1.869946955402407e-12
0.010351457422974638, 1.8697836424902754e-12
0.010356226020070703, 1.8696196076967767e-12
0.010360996813912338, 1.8694548500674336e-12
0.010365769805511522, 1.8692893686466406e-12
0.010370544995880693, 1.869123162477663e-12
0.010375322386032752, 1.868956230602637e-12
0.010380101976981068, 1.868788572062566e-12
0.010384883769739492, 1.868620185897321e-12
0.010389667765322323, 1.86845107114564e-12
0.010394453964744334, 1.8682812268451246e-12
0.010399242369020761, 1.8681106520322396e-12
0.010404032979167322, 1.8679393457423122e-12
0.010408825796200191, 1.86776730700953e-12
0.01041362082113601, 1.86759453486694e-12
0.010418418054991885, 1.867421028346447e-12
0.01042321749878541, 1.8672467864788135e-12
0.010428019153534631, 1.867071808293656e-12
0.010432823020258065, 1.8668960928194457e-12
0.010437629099974697, 1.866719639083506e-12
0.010442437393703992, 1.8665424461120133e-12
0.010447247902465874, 1.8663645129299925e-12
0.010452060627280742, 1.866185838561317e-12
0.010456875569169456, 1.866006422028709e-12
0.010461692729153363, 1.8658262623537363e-12
0.010466512108254266, 1.86564535855681e-12
0.010471333707494446, 1.8654637096571864e-12
0.010476157527896646, 1.865281314672964e-12
0.010480983570484097, 1.8650981726210806e-12
0.010485811836280487, 1.8649142825173136e-12
0.010490642326309979, 1.86472964337628e-12
0.010495475041597204, 1.864544254211432e-12
0.010500309983167278, 1.8643581140350575e-12
0.010505147152045778, 1.8641712218582776e-12
0.010509986549258755, 1.8639835766910487e-12
0.01051482817583273, 1.863795177542156e-12
0.01051967203279471, 1.863606023419215e-12
0.010524518121172163, 1.863416113328671e-12
0.010529366441993029, 1.863225446275795e-12
0.010534216996285723, 1.8630340212646857e-12
0.010539069785079147, 1.862841837298264e-12
0.010543924809402663, 1.8626488933782767e-12
0.010548782070286108, 1.86245518850529e-12
0.010553641568759792, 1.8622607216786923e-12
0.010558503305854516, 1.8620654918966893e-12
0.010563367282601535, 1.8618694981563074e-12
0.010568233500032588, 1.8616727394533854e-12
0.010573101959179888, 1.861475214782581e-12
0.010577972661076131, 1.861276923137362e-12
0.010582845606754479, 1.8610778635100113e-12
0.010587720797248571, 1.8608780348916214e-12
0.01059259823359252, 1.860677436272094e-12
0.010597477916820933, 1.86047606664014e-12
0.010602359847968873, 1.8602739249832754e-12
0.010607244028071885, 1.8600710102878233e-12
0.01061213045816599, 1.8598673215389102e-12
0.010617019139287701, 1.859662857720465e-12
0.010621910072473992, 1.8594576178152175e-12
0.010626803258762316, 1.8592516008046984e-12
0.010631698699190607, 1.8590448056692355e-12
0.010636596394797285, 1.858837231387955e-12
0.010641496346621235, 1.8586288769387767e-12
0.010646398555701831, 1.8584197412984185e-12
0.010651303023078913, 1.8582098234423865e-12
0.01065620974979282, 1.8579991223449827e-12
0.010661118736884355, 1.857787636979295e-12
0.0106660299853948, 1.857575366317203e-12
0.01067094349636592, 1.857362309329373e-12
0.010675859270839968, 1.857148464985257e-12
0.010680777309859666, 1.8569338322530892e-12
0.010685697614468222, 1.856718410099892e-12
0.010690620185709317, 1.8565021974914646e-12
0.010695545024627127, 1.8562851933923888e-12
0.010700472132266298, 1.856067396766025e-12
0.010705401509671959, 1.8558488065745104e-12
0.010710333157889714, 1.85562942177876e-12
0.010715267077965671, 1.8554092413384606e-12
0.010720203270946397, 1.855188264212074e-12
0.010725141737878948, 1.8549664893568344e-12
0.010730082479810861, 1.8547439157287445e-12
0.010735025497790167, 1.8545205422825777e-12
0.010739970792865365, 1.8542963679718735e-12
0.010744918366085439, 1.8540713917489384e-12
0.01074986821849987, 1.853845612564843e-12
0.010754820351158607, 1.8536190293694222e-12
0.010759774765112088, 1.8533916411112712e-12
0.01076473146141123, 1.8531634467377464e-12
0.010769690441107451, 1.852934445194964e-12
0.010774651705252635, 1.8527046354277957e-12
0.010779615254899158, 1.8524740163798713e-12
0.010784581091099874, 1.8522425869935733e-12
0.010789549214908137, 1.852010346210039e-12
0.010794519627377775, 1.8517772929691575e-12
0.010799492329563103, 1.8515434262095662e-12
0.010804467322518916, 1.851308744868655e-12
0.010809444607300512, 1.8510732478825565e-12
0.010814424184963659, 1.8508369341861534e-12
0.010819406056564618, 1.850599802713071e-12
0.010824390223160129, 1.850361852395678e-12
0.010829376685807435, 1.850123082165084e-12
0.010834365445564254, 1.8498834909511407e-12
0.01083935650348879, 1.8496430776824372e-12
0.010844349860639736, 1.8494018412862993e-12
0.010849345518076283, 1.8491597806887897e-12
0.010854343476858095, 1.8489168948147052e-12
0.010859343738045335, 1.8486731825875745e-12
0.010864346302698641, 1.84842864292966e-12
0.010869351171879161, 1.8481832747619515e-12
0.010874358346648514, 1.847937077004169e-12
0.010879367828068814, 1.8476900485747583e-12
0.010884379617202658, 1.8474421883908926e-12
0.01088939371511315, 1.847193495368466e-12
0.010894410122863865, 1.8469439684220983e-12
0.010899428841518878, 1.846693606465129e-12
0.010904449872142744, 1.846442408409618e-12
0.010909473215800526, 1.8461903731663418e-12
0.010914498873557762, 1.8459374996447953e-12
0.010919526846480489, 1.8456837867531876e-12
0.010924557135635225, 1.8454292333984424e-12
0.010929589742088996, 1.845173838486194e-12
0.010934624666909308, 1.8449176009207894e-12
0.010939661911164156, 1.8446605196052834e-12
0.010944701475922032, 1.84440259344144e-12
0.010949743362251928, 1.8441438213297278e-12
0.010954787571223317, 1.8438842021693216e-12
0.010959834103906167, 1.8436237348580973e-12
0.010964882961370933, 1.8433624182926365e-12
0.010969934144688583, 1.843100251368216e-12
0.010974987654930561, 1.8428372329788164e-12
0.01098004349316881, 1.8425733620171117e-12
0.010985101660475758, 1.8423086373744742e-12
0.010990162157924347, 1.8420430579409685e-12
0.010995224986587997, 1.8417766226053537e-12
0.011000290147540625, 1.8415093302550787e-12
0.01100535764185664, 1.8412411797762836e-12
0.011010427470610961, 1.8409721700537956e-12
0.011015499634878988, 1.8407022999711288e-12
0.011020574135736618, 1.8404315684104823e-12
0.011025650974260242, 1.8401599742527393e-12
0.011030730151526759, 1.839887516377466e-12
0.011035811668613553, 1.839614193662907e-12
0.011040895526598506, 1.839340004985987e-12
0.01104598172655999, 1.83906494922231e-12
0.011051070269576899, 1.8387890252461532e-12
0.011056161156728592, 1.8385122319304706e-12
0.011061254389094945, 1.8382345681468883e-12
0.01106634996775632, 1.8379560327657034e-12
0.011071447893793593, 1.837676624655883e-12
0.011076548168288122, 1.8373963426850627e-12
0.011081650792321762, 1.837115185719547e-12
0.011086755766976887, 1.8368331526243017e-12
0.01109186309333635, 1.83655024226296e-12
0.011096972772483506, 1.8362664534978154e-12
0.011102084805502213, 1.835981785189822e-12
0.011107199193476823, 1.8356962361985943e-12
0.011112315937492201, 1.8354098053824033e-12
0.011117435038633699, 1.835122491598177e-12
0.011122556497987162, 1.8348342937014957e-12
0.01112768031663896, 1.834545210546596e-12
0.011132806495675945, 1.834255240986363e-12
0.011137935036185471, 1.8339643838723337e-12
0.01114306593925539, 1.8336726380546905e-12
0.011148199205974072, 1.833380002382266e-12
0.011153334837430372, 1.833086475702535e-12
0.011158472834713652, 1.8327920568616178e-12
0.011163613198913768, 1.832496744704277e-12
0.011168755931121101, 1.832200538073912e-12
0.011173901032426508, 1.831903435812566e-12
0.011179048503921363, 1.8316054367609164e-12
0.011184198346697533, 1.831306539758277e-12
0.011189350561847404, 1.831006743642595e-12
0.01119450515046385, 1.830706047250453e-12
0.011199662113640256, 1.8304044494170607e-12
0.0112048214524705, 1.83010194897626e-12
0.011209983168048986, 1.8297985447605194e-12
0.0112151472614706, 1.8294942356009336e-12
0.011220313733830745, 1.8291890203272236e-12
0.011225482586225317, 1.82888289776773e-12
0.011230653819750734, 1.8285758667494186e-12
0.011235827435503906, 1.828267926097873e-12
0.011241003434582252, 1.8279590746372955e-12
0.01124618181808369, 1.8276493111905062e-12
0.011251362587106661, 1.8273386345789375e-12
0.011256545742750096, 1.827027043622638e-12
0.011261731286113437, 1.8267145371402667e-12
0.01126691921829663, 1.8264011139490946e-12
0.011272109540400137, 1.826086772864999e-12
0.01127730225352492, 1.8257715127024657e-12
0.011282497358772443, 1.825455332274586e-12
0.011287694857244682, 1.825138230393056e-12
0.011292894750044134, 1.82482020586817e-12
0.011298097038273782, 1.8245012575088282e-12
0.011303301723037128, 1.824181384122526e-12
0.011308508805438178, 1.8238605845153597e-12
0.011313718286581459, 1.823538857492017e-12
0.01131893016757199, 1.8232162018557835e-12
0.011324144449515312, 1.822892616408535e-12
0.011329361133517459, 1.822568099950741e-12
0.011334580220684998, 1.822242651281456e-12
0.01133980171212499, 1.8219162691983255e-12
0.011345025608945005, 1.8215889524975805e-12
0.011350251912253126, 1.821260699974036e-12
0.011355480623157957, 1.8209315104210896e-12
0.011360711742768597, 1.8206013826307207e-12
0.011365945272194663, 1.8202703153934867e-12
0.011371181212546278, 1.819938307498525e-12
0.011376419564934093, 1.8196053577335473e-12
0.011381660330469251, 1.8192714648848407e-12
0.011386903510263415, 1.8189366277372654e-12
0.011392149105428755, 1.818600845074253e-12
0.011397397117077969, 1.8182641156778033e-12
0.01140264754632425, 1.817926438328486e-12
0.011407900394281311, 1.817587811805436e-12
0.01141315566206337, 1.8172482348863538e-12
0.011418413350785181, 1.8169077063475012e-12
0.011423673461561987, 1.8165662249637026e-12
0.011428935995509556, 1.8162237895083425e-12
0.011434200953744162, 1.815880398753363e-12
0.01143946833738261, 1.8155360514692613e-12
0.011444738147542204, 1.8151907464250905e-12
0.011450010385340766, 1.8148444823884575e-12
0.011455285051896628, 1.8144972581255196e-12
0.011460562148328659, 1.8141490724009835e-12
0.01146584167575622, 1.813799923978104e-12
0.011471123635299188, 1.813449811618683e-12
0.011476408028077976, 1.8130987340830672e-12
0.011481694855213496, 1.8127466901301438e-12
0.011486984117827182, 1.8123936785173448e-12
0.011492275817040981, 1.81203969800064e-12
0.011497569953977356, 1.8116847473345374e-12
0.011502866529759301, 1.8113288252720805e-12
0.011508165545510311, 1.8109719305648485e-12
0.011513467002354399, 1.8106140619629534e-12
0.011518770901416113, 1.8102552182150372e-12
0.011524077243820501, 1.8098953980682733e-12
0.011529386030693136, 1.8095346002683606e-12
0.011534697263160105, 1.809172823559526e-12
0.011540010942348026, 1.8088100666845196e-12
0.011545327069384024, 1.808446328384615e-12
0.011550645645395747, 1.808081607399606e-12
0.011555966671511356, 1.8077159024678073e-12
0.011561290148859552, 1.8073492123260482e-12
0.011566616078569535, 1.8069815357096763e-12
0.01157194446177103, 1.806612871352553e-12
0.011577275299594283, 1.8062432179870515e-12
0.011582608593170073, 1.805872574344056e-12
0.011587944343629683, 1.8055009391529606e-12
0.011593282552104924, 1.8051283111416637e-12
0.01159862321972812, 1.804754689036573e-12
0.01160396634763214, 1.804380071562598e-12
0.011609311936950351, 1.8040044574431504e-12
0.011614659988816653, 1.8036278454001421e-12
0.011620010504365457, 1.8032502341539851e-12
0.01162536348473172, 1.8028716224235861e-12
0.0116307189310509, 1.8024920089263496e-12
0.011636076844458984, 1.8021113923781711e-12
0.01164143722609248, 1.8017297714934391e-12
0.011646800077088435, 1.8013471449850313e-12
0.011652165398584402, 1.8009635115643146e-12
0.011657533191718465, 1.8005788699411416e-12
0.011662903457629223, 1.8001932188238506e-12
0.011668276197455823, 1.799806556919261e-12
0.011673651412337912, 1.799418882932676e-12
0.011679029103415674, 1.7990301955678764e-12
0.01168440927182981, 1.798640493527121e-12
0.011689791918721566, 1.798249775511145e-12
0.01169517704523269, 1.7978580402191572e-12
0.011700564652505468, 1.79746528634884e-12
0.011705954741682708, 1.7970715125963465e-12
0.011711347313907753, 1.7966767176562963e-12
0.011716742370324464, 1.7962809002217791e-12
0.011722139912077231, 1.7958840589843486e-12
0.011727539940310965, 1.7954861926340224e-12
0.011732942456171123, 1.79508729985928e-12
0.011738347460803673, 1.7946873793470603e-12
0.011743754955355113, 1.7942864297827617e-12
0.01174916494097247, 1.7938844498502389e-12
0.011754577418803308, 1.7934814382318008e-12
0.011759992389995711, 1.7930773936082092e-12
0.011765409855698293, 1.7926723146586774e-12
0.011770829817060192, 1.7922662000608687e-12
0.01177625227523109, 1.7918590484908926e-12
0.01178167723136119, 1.791450858623305e-12
0.011787104686601218, 1.7910416291311073e-12
0.011792534642102436, 1.790631358685742e-12
0.011797967099016647, 1.7902200459570898e-12
0.011803402058496169, 1.789807689613474e-12
0.011808839521693856, 1.7893942883216537e-12
0.011814279489763088, 1.7889798407468206e-12
0.011819721963857796, 1.7885643455526017e-12
0.01182516694513242, 1.7881478014010557e-12
0.011830614434741942, 1.7877302069526698e-12
0.011836064433841867, 1.7873115608663598e-12
0.011841516943588254, 1.7868918617994674e-12
0.011846971965137674, 1.786471108407757e-12
0.011852429499647234, 1.7860492993454189e-12
0.011857889548274577, 1.7856264332650603e-12
0.011863352112177886, 1.7852025088177087e-12
0.011868817192515866, 1.784777524652808e-12
0.011874284790447756, 1.784351479418219e-12
0.011879754907133349, 1.7839243717602133e-12
0.011885227543732946, 1.783496200323475e-12
0.011890702701407395, 1.7830669637510978e-12
0.011896180381318079, 1.7826366606845838e-12
0.011901660584626906, 1.7822052897638397e-12
0.011907143312496342, 1.7817728496271772e-12
0.011912628566089368, 1.7813393389113095e-12
0.011918116346569498, 1.7809047562513518e-12
0.011923606655100808, 1.7804691002808164e-12
0.011929099492847883, 1.780032369631612e-12
0.011934594860975856, 1.7795945629340435e-12
0.011940092760650394, 1.779155678816809e-12
0.011945593193037701, 1.7787157159069963e-12
0.011951096159304526, 1.7782746728300832e-12
0.011956601660618148, 1.7778325482099345e-12
0.011962109698146374, 1.7773893406688029e-12
0.011967620273057575, 1.776945048827321e-12
0.011973133386520639, 1.776499671304507e-12
0.011978649039704997, 1.7760532067177566e-12
0.011984167233780615, 1.7756056536828454e-12
0.011989687969918016, 1.7751570108139234e-12
0.011995211249288243, 1.7747072767235165e-12
0.012000737073062885, 1.774256450022523e-12
0.012006265442414064, 1.7738045293202112e-12
0.012011796358514461, 1.7733515132242188e-12
0.012017329822537278, 1.77289740034055e-12
0.012022865835656265, 1.7724421892735745e-12
0.012028404399045707, 1.7719858786260254e-12
0.012033945513880444, 1.7715284669989945e-12
0.012039489181335846, 1.7710699529919373e-12
0.012045035402587823, 1.7706103352026634e-12
0.012050584178812827, 1.7701496122273398e-12
0.012056135511187865, 1.7696877826604852e-12
0.012061689400890474, 1.7692248450949724e-12
0.012067245849098731, 1.7687607981220228e-12
0.012072804856991259, 1.7682956403312067e-12
0.012078366425747234, 1.7678293703104393e-12
0.012083930556546362, 1.7673619866459806e-12
0.0120894972505689, 1.7668934879224322e-12
0.012095066508995637, 1.766423872722739e-12
0.012100638333007927, 1.7659531396281798e-12
0.012106212723787651, 1.7654812872183735e-12
0.012111789682517238, 1.7650083140712718e-12
0.012117369210379661, 1.7645342187631615e-12
0.012122951308558448, 1.7640589998686555e-12
0.01212853597823766, 1.763582655960701e-12
0.01213412322060191, 1.7631051856105684e-12
0.012139713036836346, 1.7626265873878558e-12
0.012145305428126684, 1.7621468598604815e-12
0.012150900395659164, 1.761666001594687e-12
0.012156497940620585, 1.761184011155033e-12
0.012162098064198282, 1.7607008871043977e-12
0.012167700767580156, 1.760216628003972e-12
0.012173306051954635, 1.7597312324132637e-12
0.012178913918510705, 1.7592446988900906e-12
0.01218452436843789, 1.758757025990579e-12
0.012190137402926283, 1.7582682122691652e-12
0.012195753023166505, 1.7577782562785886e-12
0.012201371230349731, 1.7572871565698942e-12
0.012206992025667681, 1.7567949116924284e-12
0.012212615410312641, 1.7563015201938363e-12
0.012218241385477427, 1.7558069806200618e-12
0.012223869952355412, 1.755311291515344e-12
0.012229501112140512, 1.7548144514222177e-12
0.012235134866027213, 1.7543164588815068e-12
0.01224077121521053, 1.7538173124323273e-12
0.012246410160886036, 1.7533170106120814e-12
0.01225205170424985, 1.7528155519564611e-12
0.012257695846498657, 1.7523129349994376e-12
0.01226334258882968, 1.7518091582732673e-12
0.012268991932440692, 1.7513042203084855e-12
0.012274643878530023, 1.7507981196339066e-12
0.01228029842829656, 1.7502908547766206e-12
0.012285955582939736, 1.7497824242619905e-12
0.012291615343659527, 1.749272826613654e-12
