m (eV), gayy (GeV^(-1))
0.01, 1.570397273749817e-12
0.010004606691503637, 1.5703033346054503e-12
0.010009215505167928, 1.5702088489491276e-12
0.0100138264419705, 1.5701138160503541e-12
0.010018439502889411, 1.570018235177772e-12
0.010023054688903176, 1.569922105599157e-12
0.010027672000990756, 1.5698254265814176e-12
0.010032291440131577, 1.5697281973905965e-12
0.010036913007305503, 1.5696304172918655e-12
0.010041536703492851, 1.5695320855495286e-12
0.010046162529674389, 1.5694332014270186e-12
0.010050790486831348, 1.5693337641868962e-12
0.0100554205759454, 1.5692337730908503e-12
0.010060052797998669, 1.5691332273996956e-12
0.01006468715397373, 1.5690321263733731e-12
0.010069323644853629, 1.5689304692709452e-12
0.010073962271621838, 1.5688282553506025e-12
0.010078603035262302, 1.5687254838696533e-12
0.010083245936759404, 1.56862215408453e-12
0.010087890977097997, 1.5685182652507844e-12
0.010092538157263378, 1.568413816623087e-12
0.010097187478241296, 1.5683088074552277e-12
0.010101838941017955, 1.5682032370001125e-12
0.010106492546580022, 1.5680971045097644e-12
0.010111148295914613, 1.5679904092353216e-12
0.010115806190009291, 1.5678831504270354e-12
0.010120466229852082, 1.567775327334272e-12
0.01012512841643147, 1.5676669392055079e-12
0.01012979275073639, 1.5675579852883316e-12
0.010134459233756232, 1.5674484648294414e-12
0.010139127866480835, 1.5673383770746457e-12
0.010143798649900514, 1.5672277212688585e-12
0.010148471585006024, 1.5671164966561035e-12
0.010153146672788578, 1.5670047024795082e-12
0.010157823914239843, 1.5668923379813062e-12
0.01016250331035196, 1.566779402402834e-12
0.010167184862117507, 1.5666658949845324e-12
0.010171868570529527, 1.5665518149659422e-12
0.010176554436581518, 1.566437161585706e-12
0.010181242461267448, 1.5663219340815663e-12
0.010185932645581725, 1.5662061316903637e-12
0.010190624990519226, 1.566089753648036e-12
0.010195319497075278, 1.5659727991896187e-12
0.010200016166245681, 1.5658552675492422e-12
0.01020471499902668, 1.5657371579601312e-12
0.010209415996414985, 1.5656184696546047e-12
0.010214119159407757, 1.5654992018640724e-12
0.010218824489002633, 1.5653793538190375e-12
0.010223531986197697, 1.5652589247490912e-12
0.010228241651991493, 1.5651379138829163e-12
0.010232953487383024, 1.5650163204482818e-12
0.010237667493371768, 1.5648941436720447e-12
0.010242383670957644, 1.5647713827801484e-12
0.010247102021141043, 1.5646480369976203e-12
0.010251822544922806, 1.5645241055485723e-12
0.010256545243304254, 1.5643995876561997e-12
0.010261270117287152, 1.5642744825427788e-12
0.010265997167873735, 1.564148789429667e-12
0.010270726396066689, 1.5640225075373021e-12
0.01027545780286918, 1.5638956360851986e-12
0.010280191389284826, 1.5637681742919508e-12
0.010284927156317703, 1.563640121375228e-12
0.01028966510497235, 1.5635114765517758e-12
0.010294405236253783, 1.5633822390374137e-12
0.010299147551167467, 1.5632524080470341e-12
0.010303892050719334, 1.5631219827946031e-12
0.010308638735915771, 1.5629909624931567e-12
0.01031338760776365, 1.5628593463548007e-12
0.01031813866727029, 1.562727133590711e-12
0.010322891915443475, 1.562594323411131e-12
0.010327647353291452, 1.5624609150253708e-12
0.010332404981822947, 1.562326907641806e-12
0.010337164802047136, 1.5621923004678776e-12
0.010341926814973664, 1.5620570927100892e-12
0.010346691021612635, 1.561921283574009e-12
0.010351457422974638, 1.5617848722642635e-12
0.010356226020070703, 1.5616478579845413e-12
0.010360996813912338, 1.5615102399375918e-12
0.010365769805511522, 1.5613720173252198e-12
0.010370544995880693, 1.5612331893482887e-12
0.010375322386032752, 1.5610937552067172e-12
0.010380101976981068, 1.5609537140994798e-12
0.010384883769739492, 1.5608130652246037e-12
0.010389667765322323, 1.5606718077791697e-12
0.010394453964744334, 1.5605299409593103e-12
0.010399242369020761, 1.5603874639602078e-12
0.010404032979167322, 1.5602443759760945e-12
0.010408825796200191, 1.5601006762002504e-12
0.01041362082113601, 1.559956363825003e-12
0.010418418054991885, 1.5598114380417272e-12
0.01042321749878541, 1.5596658980408407e-12
0.010428019153534631, 1.5595197430118068e-12
0.010432823020258065, 1.559372972143131e-12
0.010437629099974697, 1.5592255846223601e-12
0.010442437393703992, 1.5590775796360822e-12
0.010447247902465874, 1.5589289563699251e-12
0.010452060627280742, 1.5587797140085537e-12
0.010456875569169456, 1.5586298517356718e-12
0.010461692729153363, 1.5584793687340183e-12
0.010466512108254266, 1.5583282641853667e-12
0.010471333707494446, 1.5581765372705256e-12
0.010476157527896646, 1.5580241871693362e-12
0.010480983570484097, 1.5578712130606707e-12
0.010485811836280487, 1.5577176141224322e-12
0.010490642326309979, 1.557563389531554e-12
0.010495475041597204, 1.5574085384639963e-12
0.010500309983167278, 1.5572530600947476e-12
0.010505147152045778, 1.5570969535978216e-12
0.010509986549258755, 1.556940218146258e-12
0.01051482817583273, 1.55678285291212e-12
0.01051967203279471, 1.5566248570664926e-12
0.010524518121172163, 1.5564662297794833e-12
0.010529366441993029, 1.5563069702202202e-12
0.010534216996285723, 1.5561470775568497e-12
0.010539069785079147, 1.5559865509565376e-12
0.010543924809402663, 1.5558253895854651e-12
0.010548782070286108, 1.5556635926088314e-12
0.010553641568759792, 1.5555011591908485e-12
0.010558503305854516, 1.5553380884947437e-12
0.010563367282601535, 1.5551743796827551e-12
0.010568233500032588, 1.555010031916133e-12
0.010573101959179888, 1.554845044355139e-12
0.010577972661076131, 1.5546794161590404e-12
0.010582845606754479, 1.5545131464861172e-12
0.010587720797248571, 1.5543462344936516e-12
0.01059259823359252, 1.5541786793379346e-12
0.010597477916820933, 1.55401048017426e-12
0.010602359847968873, 1.553841636156925e-12
0.010607244028071885, 1.5536721464392296e-12
0.01061213045816599, 1.553502010173475e-12
0.010617019139287701, 1.5533312265109608e-12
0.010621910072473992, 1.5531597946019868e-12
0.010626803258762316, 1.55298771359585e-12
0.010631698699190607, 1.5528149826408432e-12
0.010636596394797285, 1.5526416008842545e-12
0.010641496346621235, 1.5524675674723666e-12
0.010646398555701831, 1.552292881550455e-12
0.010651303023078913, 1.5521175422627867e-12
0.01065620974979282, 1.5519415487526191e-12
0.010661118736884355, 1.5517649001621993e-12
0.0106660299853948, 1.5515875956327625e-12
0.01067094349636592, 1.551409634304531e-12
0.010675859270839968, 1.551231015316713e-12
0.010680777309859666, 1.5510517378075005e-12
0.010685697614468222, 1.5508718009140712e-12
0.010690620185709317, 1.5506912037725834e-12
0.010695545024627127, 1.550509945518177e-12
0.010700472132266298, 1.5503280252849714e-12
0.010705401509671959, 1.5501454422060664e-12
0.010710333157889714, 1.5499621954135382e-12
0.010715267077965671, 1.549778284038439e-12
0.010720203270946397, 1.5495937072107977e-12
0.010725141737878948, 1.5494084640596164e-12
0.010730082479810861, 1.5492225537128705e-12
0.010735025497790167, 1.549035975297506e-12
0.010739970792865365, 1.5488487279394421e-12
0.010744918366085439, 1.5486608107635644e-12
0.01074986821849987, 1.5484722228937282e-12
0.010754820351158607, 1.548282963452755e-12
0.010759774765112088, 1.5480930315624336e-12
0.01076473146141123, 1.547902426343515e-12
0.010769690441107451, 1.5477111469157167e-12
0.010774651705252635, 1.5475191923977146e-12
0.010779615254899158, 1.5473265619071493e-12
0.010784581091099874, 1.5471332545606178e-12
0.010789549214908137, 1.5469392694736787e-12
0.010794519627377775, 1.5467446057608456e-12
0.010799492329563103, 1.5465492625355899e-12
0.010804467322518916, 1.5463532389103375e-12
0.010809444607300512, 1.5461565339964672e-12
0.010814424184963659, 1.5459591469043114e-12
0.010819406056564618, 1.5457610767431538e-12
0.010824390223160129, 1.5455623226212277e-12
0.010829376685807435, 1.545362883645715e-12
0.010834365445564254, 1.5451627589227468e-12
0.01083935650348879, 1.544961947557399e-12
0.010844349860639736, 1.5447604486536941e-12
0.010849345518076283, 1.5445582613145973e-12
0.010854343476858095, 1.5443553846420177e-12
0.010859343738045335, 1.5441518177368056e-12
0.010864346302698641, 1.5439475596987524e-12
0.010869351171879161, 1.5437426096265867e-12
0.010874358346648514, 1.5435369666179775e-12
0.010879367828068814, 1.5433306297695285e-12
0.010884379617202658, 1.5431235981767805e-12
0.01088939371511315, 1.542915870934207e-12
0.010894410122863865, 1.542707447135216e-12
0.010899428841518878, 1.542498325872146e-12
0.010904449872142744, 1.5422885062362671e-12
0.010909473215800526, 1.542077987317778e-12
0.010914498873557762, 1.5418667682058056e-12
0.010919526846480489, 1.5416548479884034e-12
0.010924557135635225, 1.5414422257525518e-12
0.010929589742088996, 1.5412289005841534e-12
0.010934624666909308, 1.541014871568036e-12
0.010939661911164156, 1.540800137787948e-12
0.010944701475922032, 1.5405846983265589e-12
0.010949743362251928, 1.5403685522654579e-12
0.010954787571223317, 1.5401516986851508e-12
0.010959834103906167, 1.5399341366650624e-12
0.010964882961370933, 1.5397158652835319e-12
0.010969934144688583, 1.5394968836178127e-12
0.010974987654930561, 1.5392771907440718e-12
0.01098004349316881, 1.5390567857373882e-12
0.010985101660475758, 1.5388356676717511e-12
0.010990162157924347, 1.5386138356200592e-12
0.010995224986587997, 1.5383912886541195e-12
0.011000290147540625, 1.5381680258446455e-12
0.01100535764185664, 1.5379440462612564e-12
0.011010427470610961, 1.537719348972476e-12
0.011015499634878988, 1.53749393304573e-12
0.011020574135736618, 1.5372677975473472e-12
0.011025650974260242, 1.5370409415425567e-12
0.011030730151526759, 1.5368133640954867e-12
0.011035811668613553, 1.5365850642691622e-12
0.011040895526598506, 1.5363560411255068e-12
0.01104598172655999, 1.5361262937253382e-12
0.011051070269576899, 1.5358958211283684e-12
0.011056161156728592, 1.5356646223932025e-12
0.011061254389094945, 1.535432696577338e-12
0.01106634996775632, 1.5352000427371611e-12
0.011071447893793593, 1.534966659927948e-12
0.011076548168288122, 1.534732547203862e-12
0.011081650792321762, 1.5344977036179542e-12
0.011086755766976887, 1.5342621282221585e-12
0.01109186309333635, 1.5340258200672951e-12
0.011096972772483506, 1.5337887782030656e-12
0.011102084805502213, 1.5335510016780528e-12
0.011107199193476823, 1.5333124895397204e-12
0.011112315937492201, 1.5330732408344094e-12
0.011117435038633699, 1.5328332546073394e-12
0.011122556497987162, 1.532592529902606e-12
0.01112768031663896, 1.5323510657631787e-12
0.011132806495675945, 1.5321088612309018e-12
0.011137935036185471, 1.5318659153464901e-12
0.01114306593925539, 1.531622227149532e-12
0.011148199205974072, 1.531377795678483e-12
0.011153334837430372, 1.5311326199706668e-12
0.011158472834713652, 1.5308866990622771e-12
0.011163613198913768, 1.5306400319883706e-12
0.011168755931121101, 1.5303926177828681e-12
0.011173901032426508, 1.530144455478556e-12
0.011179048503921363, 1.5298955441070797e-12
0.011184198346697533, 1.529645882698947e-12
0.011189350561847404, 1.5293954702835241e-12
0.01119450515046385, 1.5291443058890344e-12
0.011199662113640256, 1.5288923885425587e-12
0.0112048214524705, 1.5286397172700334e-12
0.011209983168048986, 1.5283862910962465e-12
0.0112151472614706, 1.5281321090448412e-12
0.011220313733830745, 1.527877170138311e-12
0.011225482586225317, 1.5276214733979977e-12
0.011230653819750734, 1.5273650178440944e-12
0.011235827435503906, 1.5271078024956393e-12
0.011241003434582252, 1.5268498263705171e-12
0.01124618181808369, 1.5265910884854575e-12
0.011251362587106661, 1.526331587856033e-12
0.011256545742750096, 1.526071323496658e-12
0.011261731286113437, 1.5258102944205871e-12
0.01126691921829663, 1.5255484996399152e-12
0.011272109540400137, 1.5252859381655734e-12
0.01127730225352492, 1.5250226090073314e-12
0.011282497358772443, 1.5247585111737924e-12
0.011287694857244682, 1.5244936436723946e-12
0.011292894750044134, 1.5242280055094067e-12
0.011298097038273782, 1.523961595689932e-12
0.011303301723037128, 1.5236944132178995e-12
0.011308508805438178, 1.5234264570960701e-12
0.011313718286581459, 1.5231577263260301e-12
0.01131893016757199, 1.5228882199081916e-12
0.011324144449515312, 1.5226179368417917e-12
0.011329361133517459, 1.5223468761248902e-12
0.011334580220684998, 1.5220750367543672e-12
0.01133980171212499, 1.5218024177259262e-12
0.011345025608945005, 1.521529018034087e-12
0.011350251912253126, 1.521254836672188e-12
0.011355480623157957, 1.5209798726323837e-12
0.011360711742768597, 1.5207041249056438e-12
0.011365945272194663, 1.52042759248175e-12
0.011371181212546278, 1.5201502743492988e-12
0.011376419564934093, 1.5198721694956947e-12
0.011381660330469251, 1.5195932769071528e-12
0.011386903510263415, 1.5193135955686965e-12
0.011392149105428755, 1.5190331244641562e-12
0.011397397117077969, 1.5187518625761645e-12
0.01140264754632425, 1.518469808886163e-12
0.011407900394281311, 1.5181869623743904e-12
0.01141315566206337, 1.5179033220198913e-12
0.011418413350785181, 1.5176188868005064e-12
0.011423673461561987, 1.5173336556928763e-12
0.011428935995509556, 1.5170476276724383e-12
0.011434200953744162, 1.5167608017134262e-12
0.01143946833738261, 1.5164731767888658e-12
0.011444738147542204, 1.5161847518705775e-12
0.011450010385340766, 1.5158955259291727e-12
0.011455285051896628, 1.5156054979340529e-12
0.011460562148328659, 1.5153146668534071e-12
0.01146584167575622, 1.5150230316542127e-12
0.011471123635299188, 1.514730591302233e-12
0.011476408028077976, 1.5144373447620143e-12
0.011481694855213496, 1.5141432909968872e-12
0.011486984117827182, 1.5138484289689638e-12
0.011492275817040981, 1.5135527576391355e-12
0.011497569953977356, 1.513256275967074e-12
0.011502866529759301, 1.512958982911226e-12
0.011508165545510311, 1.5126608774288166e-12
0.011513467002354399, 1.5123619584758438e-12
0.011518770901416113, 1.5120622250070801e-12
0.011524077243820501, 1.5117616759760682e-12
0.011529386030693136, 1.5114603103351218e-12
0.011534697263160105, 1.5111581270353243e-12
0.011540010942348026, 1.510855125026525e-12
0.011545327069384024, 1.5105513032573401e-12
0.011550645645395747, 1.5102466606751506e-12
0.011555966671511356, 1.5099411962261005e-12
0.011561290148859552, 1.5096349088550948e-12
0.011566616078569535, 1.5093277975058e-12
0.01157194446177103, 1.5090198611206407e-12
0.011577275299594283, 1.5087110986407996e-12
0.011582608593170073, 1.5084015090062146e-12
0.011587944343629683, 1.5080910911555794e-12
0.011593282552104924, 1.5077798440263395e-12
0.01159862321972812, 1.5074677665546931e-12
0.01160396634763214, 1.5071548576755883e-12
0.011609311936950351, 1.5068411163227222e-12
0.011614659988816653, 1.5065265414285385e-12
0.011620010504365457, 1.5062111319242283e-12
0.01162536348473172, 1.5058948867397263e-12
0.0116307189310509, 1.5055778048037101e-12
0.011636076844458984, 1.5052598850436e-12
0.01164143722609248, 1.5049411263855549e-12
0.011646800077088435, 1.5046215277544734e-12
0.011652165398584402, 1.5043010880739912e-12
0.011657533191718465, 1.50397980626648e-12
0.011662903457629223, 1.5036576812530455e-12
0.011668276197455823, 1.5033347119535257e-12
0.011673651412337912, 1.5030108972864913e-12
0.011679029103415674, 1.5026862361692423e-12
0.01168440927182981, 1.5023607275178074e-12
0.011689791918721566, 1.5020343702469416e-12
0.01169517704523269, 1.5017071632701262e-12
0.011700564652505468, 1.5013791054995665e-12
0.011705954741682708, 1.5010501958461906e-12
0.011711347313907753, 1.5007204332196466e-12
0.011716742370324464, 1.5003898165283033e-12
0.011722139912077231, 1.500058344679248e-12
0.011727539940310965, 1.499726016578284e-12
0.011732942456171123, 1.4993928311299301e-12
0.011738347460803673, 1.4990587872374178e-12
0.011743754955355113, 1.498723883802693e-12
0.01174916494097247, 1.4983881197264114e-12
0.011754577418803308, 1.4980514939079367e-12
0.011759992389995711, 1.4977140052453419e-12
0.011765409855698293, 1.4973756526354065e-12
0.011770829817060192, 1.497036434973614e-12
0.01177625227523109, 1.496696351154151e-12
0.01178167723136119, 1.496355400069907e-12
0.011787104686601218, 1.4960135806124706e-12
0.011792534642102436, 1.4956708916721311e-12
0.011797967099016647, 1.4953273321378727e-12
0.011803402058496169, 1.4949829008973773e-12
0.011808839521693856, 1.4946375968370207e-12
0.011814279489763088, 1.494291418841871e-12
0.011819721963857796, 1.4939443657956882e-12
0.01182516694513242, 1.4935964365809217e-12
0.011830614434741942, 1.4932476300787094e-12
0.011836064433841867, 1.4928979451688761e-12
0.011841516943588254, 1.4925473807299324e-12
0.011846971965137674, 1.4921959356390703e-12
0.011852429499647234, 1.491843608772168e-12
0.011857889548274577, 1.4914903990037809e-12
0.011863352112177886, 1.4911363052071453e-12
0.011868817192515866, 1.4907813262541744e-12
0.011874284790447756, 1.490425461015459e-12
0.011879754907133349, 1.4900687083602623e-12
0.011885227543732946, 1.4897110671565221e-12
0.011890702701407395, 1.489352536270848e-12
0.011896180381318079, 1.488993114568519e-12
0.011901660584626906, 1.488632800913483e-12
0.011907143312496342, 1.4882715941683537e-12
0.011912628566089368, 1.4879094931944119e-12
0.011918116346569498, 1.4875464968516014e-12
0.011923606655100808, 1.487182603998529e-12
0.011929099492847883, 1.4868178134924611e-12
0.011934594860975856, 1.4864521241893248e-12
0.011940092760650394, 1.4860855349437042e-12
0.011945593193037701, 1.4857180446088396e-12
0.011951096159304526, 1.4853496520366262e-12
0.011956601660618148, 1.4849803560776114e-12
0.011962109698146374, 1.4846101555809962e-12
0.011967620273057575, 1.484239049394629e-12
0.011973133386520639, 1.4838670363650084e-12
0.011978649039704997, 1.4834941153372795e-12
0.011984167233780615, 1.4831202851552328e-12
0.011989687969918016, 1.482745544661301e-12
0.011995211249288243, 1.4823698926965617e-12
0.012000737073062885, 1.4819933281007315e-12
0.012006265442414064, 1.4816158497121655e-12
0.012011796358514461, 1.4812374563678583e-12
0.012017329822537278, 1.4808581469034382e-12
0.012022865835656265, 1.48047792015317e-12
0.012028404399045707, 1.480096774949949e-12
0.012033945513880444, 1.4797147101253035e-12
0.012039489181335846, 1.4793317245093901e-12
0.012045035402587823, 1.4789478169309947e-12
0.012050584178812827, 1.4785629862175294e-12
0.012056135511187865, 1.47817723119503e-12
0.012061689400890474, 1.4777905506881573e-12
0.012067245849098731, 1.4774029435201923e-12
0.012072804856991259, 1.4770144085130378e-12
0.012078366425747234, 1.4766249444872133e-12
0.012083930556546362, 1.4762345502618564e-12
0.0120894972505689, 1.475843224654719e-12
0.012095066508995637, 1.4754509664821695e-12
0.012100638333007927, 1.4750577745591845e-12
0.012106212723787651, 1.474663647699354e-12
0.012111789682517238, 1.4742685847148757e-12
0.012117369210379661, 1.473872584416557e-12
0.012122951308558448, 1.4734756456138057e-12
0.01212853597823766, 1.4730777671146404e-12
0.01213412322060191, 1.4726789477256767e-12
0.012139713036836346, 1.4722791862521356e-12
0.012145305428126684, 1.4718784814978338e-12
0.012150900395659164, 1.4714768322651874e-12
0.012156497940620585, 1.471074237355209e-12
0.012162098064198282, 1.4706706955675053e-12
0.012167700767580156, 1.4702662057002745e-12
0.012173306051954635, 1.4698607665503084e-12
0.012178913918510705, 1.4694543769129867e-12
0.01218452436843789, 1.4690470355822777e-12
0.012190137402926283, 1.468638741350736e-12
0.012195753023166505, 1.4682294930095009e-12
0.012201371230349731, 1.4678192893482952e-12
0.012206992025667681, 1.4674081291554228e-12
0.012212615410312641, 1.4669960112177677e-12
0.012218241385477427, 1.466582934320791e-12
0.012223869952355412, 1.4661688972485325e-12
0.012229501112140512, 1.4657538987836052e-12
0.012235134866027213, 1.4653379377071957e-12
0.01224077121521053, 1.4649210127990631e-12
0.012246410160886036, 1.4645031228375353e-12
0.01225205170424985, 1.4640842665995105e-12
0.012257695846498657, 1.4636644428604508e-12
0.01226334258882968, 1.4632436503943854e-12
0.012268991932440692, 1.4628218879739071e-12
0.012274643878530023, 1.4623991543701689e-12
0.01228029842829656, 1.4619754483528859e-12
0.012285955582939736, 1.4615507686903293e-12
