m (eV), gayy (GeV^(-1))
0.01, 1.5703972737498616e-12
0.010004606691503637, 1.5703033346054949e-12
0.010009215505167928, 1.5702088489491718e-12
0.0100138264419705, 1.5701138160503984e-12
0.010018439502889411, 1.5700182351778162e-12
0.010023054688903176, 1.5699221055992014e-12
0.010027672000990756, 1.5698254265814623e-12
0.010032291440131577, 1.5697281973906408e-12
0.010036913007305503, 1.5696304172919097e-12
0.010041536703492851, 1.569532085549573e-12
0.010046162529674389, 1.569433201427063e-12
0.010050790486831348, 1.5693337641869406e-12
0.0100554205759454, 1.5692337730908947e-12
0.010060052797998669, 1.56913322739974e-12
0.01006468715397373, 1.5690321263734173e-12
0.010069323644853629, 1.5689304692709898e-12
0.010073962271621838, 1.568828255350647e-12
0.010078603035262302, 1.5687254838696975e-12
0.010083245936759404, 1.5686221540845745e-12
0.010087890977097997, 1.5685182652508288e-12
0.010092538157263378, 1.5684138166231316e-12
0.010097187478241296, 1.568308807455272e-12
0.010101838941017955, 1.5682032370001567e-12
0.010106492546580022, 1.5680971045098088e-12
0.010111148295914613, 1.5679904092353658e-12
0.010115806190009291, 1.56788315042708e-12
0.010120466229852082, 1.5677753273343161e-12
0.01012512841643147, 1.5676669392055523e-12
0.01012979275073639, 1.5675579852883758e-12
0.010134459233756232, 1.5674484648294859e-12
0.010139127866480835, 1.5673383770746899e-12
0.010143798649900514, 1.567227721268903e-12
0.010148471585006024, 1.5671164966561481e-12
0.010153146672788578, 1.5670047024795526e-12
0.010157823914239843, 1.5668923379813504e-12
0.01016250331035196, 1.5667794024028785e-12
0.010167184862117507, 1.5666658949845766e-12
0.010171868570529527, 1.5665518149659864e-12
0.010176554436581518, 1.5664371615857505e-12
0.010181242461267448, 1.5663219340816107e-12
0.010185932645581725, 1.5662061316904079e-12
0.010190624990519226, 1.5660897536480803e-12
0.010195319497075278, 1.5659727991896631e-12
0.010200016166245681, 1.5658552675492864e-12
0.01020471499902668, 1.5657371579601754e-12
0.010209415996414985, 1.5656184696546487e-12
0.010214119159407757, 1.5654992018641168e-12
0.010218824489002633, 1.565379353819082e-12
0.010223531986197697, 1.5652589247491354e-12
0.010228241651991493, 1.5651379138829603e-12
0.010232953487383024, 1.565016320448326e-12
0.010237667493371768, 1.5648941436720889e-12
0.010242383670957644, 1.5647713827801924e-12
0.010247102021141043, 1.5646480369976646e-12
0.010251822544922806, 1.5645241055486165e-12
0.010256545243304254, 1.5643995876562439e-12
0.010261270117287152, 1.5642744825428232e-12
0.010265997167873735, 1.5641487894297113e-12
0.010270726396066689, 1.5640225075373465e-12
0.01027545780286918, 1.5638956360852428e-12
0.010280191389284826, 1.5637681742919949e-12
0.010284927156317703, 1.563640121375272e-12
0.01028966510497235, 1.56351147655182e-12
0.010294405236253783, 1.563382239037458e-12
0.010299147551167467, 1.5632524080470784e-12
0.010303892050719334, 1.5631219827946476e-12
0.010308638735915771, 1.562990962493201e-12
0.01031338760776365, 1.5628593463548446e-12
0.01031813866727029, 1.5627271335907552e-12
0.010322891915443475, 1.5625943234111753e-12
0.010327647353291452, 1.5624609150254148e-12
0.010332404981822947, 1.5623269076418504e-12
0.010337164802047136, 1.5621923004679218e-12
0.010341926814973664, 1.5620570927101334e-12
0.010346691021612635, 1.561921283574053e-12
0.010351457422974638, 1.5617848722643075e-12
0.010356226020070703, 1.5616478579845855e-12
0.010360996813912338, 1.5615102399376363e-12
0.010365769805511522, 1.5613720173252642e-12
0.010370544995880693, 1.5612331893483327e-12
0.010375322386032752, 1.5610937552067612e-12
0.010380101976981068, 1.560953714099524e-12
0.010384883769739492, 1.5608130652246478e-12
0.010389667765322323, 1.560671807779214e-12
0.010394453964744334, 1.5605299409593545e-12
0.010399242369020761, 1.5603874639602522e-12
0.010404032979167322, 1.5602443759761385e-12
0.010408825796200191, 1.5601006762002944e-12
0.01041362082113601, 1.559956363825047e-12
0.010418418054991885, 1.5598114380417712e-12
0.01042321749878541, 1.5596658980408847e-12
0.010428019153534631, 1.559519743011851e-12
0.010432823020258065, 1.5593729721431752e-12
0.010437629099974697, 1.5592255846224043e-12
0.010442437393703992, 1.5590775796361263e-12
0.010447247902465874, 1.5589289563699694e-12
0.010452060627280742, 1.5587797140085977e-12
0.010456875569169456, 1.558629851735716e-12
0.010461692729153363, 1.5584793687340623e-12
0.010466512108254266, 1.5583282641854107e-12
0.010471333707494446, 1.5581765372705698e-12
0.010476157527896646, 1.5580241871693802e-12
0.010480983570484097, 1.5578712130607148e-12
0.010485811836280487, 1.5577176141224764e-12
0.010490642326309979, 1.557563389531598e-12
0.010495475041597204, 1.5574085384640403e-12
0.010500309983167278, 1.5572530600947914e-12
0.010505147152045778, 1.5570969535978657e-12
0.010509986549258755, 1.556940218146302e-12
0.01051482817583273, 1.5567828529121639e-12
0.01051967203279471, 1.5566248570665366e-12
0.010524518121172163, 1.5564662297795273e-12
0.010529366441993029, 1.5563069702202642e-12
0.010534216996285723, 1.5561470775568937e-12
0.010539069785079147, 1.5559865509565816e-12
0.010543924809402663, 1.5558253895855091e-12
0.010548782070286108, 1.5556635926088752e-12
0.010553641568759792, 1.5555011591908927e-12
0.010558503305854516, 1.5553380884947875e-12
0.010563367282601535, 1.5551743796827991e-12
0.010568233500032588, 1.5550100319161767e-12
0.010573101959179888, 1.5548450443551827e-12
0.010577972661076131, 1.5546794161590844e-12
0.010582845606754479, 1.554513146486161e-12
0.010587720797248571, 1.5543462344936957e-12
0.01059259823359252, 1.5541786793379787e-12
0.010597477916820933, 1.5540104801743038e-12
0.010602359847968873, 1.5538416361569688e-12
0.010607244028071885, 1.5536721464392736e-12
0.01061213045816599, 1.553502010173519e-12
0.010617019139287701, 1.5533312265110048e-12
0.010621910072473992, 1.5531597946020309e-12
0.010626803258762316, 1.5529877135958939e-12
0.010631698699190607, 1.5528149826408868e-12
0.010636596394797285, 1.5526416008842983e-12
0.010641496346621235, 1.5524675674724108e-12
0.010646398555701831, 1.5522928815504989e-12
0.010651303023078913, 1.5521175422628305e-12
0.01065620974979282, 1.5519415487526632e-12
0.010661118736884355, 1.5517649001622432e-12
0.0106660299853948, 1.5515875956328065e-12
0.01067094349636592, 1.5514096343045748e-12
0.010675859270839968, 1.5512310153167568e-12
0.010680777309859666, 1.5510517378075443e-12
0.010685697614468222, 1.5508718009141152e-12
0.010690620185709317, 1.5506912037726274e-12
0.010695545024627127, 1.5505099455182207e-12
0.010700472132266298, 1.5503280252850152e-12
0.010705401509671959, 1.5501454422061104e-12
0.010710333157889714, 1.549962195413582e-12
0.010715267077965671, 1.5497782840384829e-12
0.010720203270946397, 1.5495937072108413e-12
0.010725141737878948, 1.5494084640596602e-12
0.010730082479810861, 1.5492225537129143e-12
0.010735025497790167, 1.5490359752975499e-12
0.010739970792865365, 1.548848727939486e-12
0.010744918366085439, 1.5486608107636082e-12
0.01074986821849987, 1.548472222893772e-12
0.010754820351158607, 1.5482829634527988e-12
0.010759774765112088, 1.5480930315624774e-12
0.01076473146141123, 1.5479024263435589e-12
0.010769690441107451, 1.5477111469157605e-12
0.010774651705252635, 1.5475191923977584e-12
0.010779615254899158, 1.5473265619071929e-12
0.010784581091099874, 1.5471332545606617e-12
0.010789549214908137, 1.5469392694737223e-12
0.010794519627377775, 1.5467446057608894e-12
0.010799492329563103, 1.5465492625356333e-12
0.010804467322518916, 1.5463532389103813e-12
0.010809444607300512, 1.5461565339965108e-12
0.010814424184963659, 1.545959146904355e-12
0.010819406056564618, 1.5457610767431976e-12
0.010824390223160129, 1.5455623226212714e-12
0.010829376685807435, 1.5453628836457588e-12
0.010834365445564254, 1.5451627589227904e-12
0.01083935650348879, 1.5449619475574427e-12
0.010844349860639736, 1.5447604486537377e-12
0.010849345518076283, 1.544558261314641e-12
0.010854343476858095, 1.5443553846420614e-12
0.010859343738045335, 1.5441518177368494e-12
0.010864346302698641, 1.543947559698796e-12
0.010869351171879161, 1.5437426096266304e-12
0.010874358346648514, 1.543536966618021e-12
0.010879367828068814, 1.5433306297695723e-12
0.010884379617202658, 1.5431235981768243e-12
0.01088939371511315, 1.5429158709342505e-12
0.010894410122863865, 1.5427074471352596e-12
0.010899428841518878, 1.5424983258721898e-12
0.010904449872142744, 1.5422885062363108e-12
0.010909473215800526, 1.5420779873178218e-12
0.010914498873557762, 1.5418667682058492e-12
0.010919526846480489, 1.541654847988447e-12
0.010924557135635225, 1.5414422257525954e-12
0.010929589742088996, 1.541228900584197e-12
0.010934624666909308, 1.5410148715680792e-12
0.010939661911164156, 1.5408001377879915e-12
0.010944701475922032, 1.5405846983266025e-12
0.010949743362251928, 1.5403685522655013e-12
0.010954787571223317, 1.5401516986851946e-12
0.010959834103906167, 1.539934136665106e-12
0.010964882961370933, 1.5397158652835757e-12
0.010969934144688583, 1.5394968836178565e-12
0.010974987654930561, 1.5392771907441154e-12
0.01098004349316881, 1.5390567857374317e-12
0.010985101660475758, 1.5388356676717946e-12
0.010990162157924347, 1.5386138356201026e-12
0.010995224986587997, 1.538391288654163e-12
0.011000290147540625, 1.5381680258446891e-12
0.01100535764185664, 1.5379440462613e-12
0.011010427470610961, 1.5377193489725194e-12
0.011015499634878988, 1.5374939330457736e-12
0.011020574135736618, 1.5372677975473908e-12
0.011025650974260242, 1.5370409415426003e-12
0.011030730151526759, 1.5368133640955303e-12
0.011035811668613553, 1.5365850642692056e-12
0.011040895526598506, 1.53635604112555e-12
0.01104598172655999, 1.5361262937253816e-12
0.011051070269576899, 1.5358958211284118e-12
0.011056161156728592, 1.5356646223932461e-12
0.011061254389094945, 1.5354326965773813e-12
0.01106634996775632, 1.5352000427372046e-12
0.011071447893793593, 1.5349666599279913e-12
0.011076548168288122, 1.5347325472039057e-12
0.011081650792321762, 1.5344977036179974e-12
0.011086755766976887, 1.5342621282222019e-12
0.01109186309333635, 1.5340258200673385e-12
0.011096972772483506, 1.533788778203109e-12
0.011102084805502213, 1.5335510016780963e-12
0.011107199193476823, 1.5333124895397639e-12
0.011112315937492201, 1.5330732408344528e-12
0.011117435038633699, 1.532833254607383e-12
0.011122556497987162, 1.5325925299026493e-12
0.01112768031663896, 1.532351065763222e-12
0.011132806495675945, 1.5321088612309448e-12
0.011137935036185471, 1.5318659153465335e-12
0.01114306593925539, 1.5316222271495754e-12
0.011148199205974072, 1.5313777956785262e-12
0.011153334837430372, 1.5311326199707102e-12
0.011158472834713652, 1.5308866990623206e-12
0.011163613198913768, 1.530640031988414e-12
0.011168755931121101, 1.5303926177829116e-12
0.011173901032426508, 1.5301444554785995e-12
0.011179048503921363, 1.529895544107123e-12
0.011184198346697533, 1.5296458826989903e-12
0.011189350561847404, 1.5293954702835675e-12
0.01119450515046385, 1.5291443058890776e-12
0.011199662113640256, 1.528892388542602e-12
0.0112048214524705, 1.5286397172700764e-12
0.011209983168048986, 1.5283862910962899e-12
0.0112151472614706, 1.5281321090448846e-12
0.011220313733830745, 1.5278771701383541e-12
0.011225482586225317, 1.527621473398041e-12
0.011230653819750734, 1.5273650178441378e-12
0.011235827435503906, 1.5271078024956823e-12
0.011241003434582252, 1.5268498263705603e-12
0.01124618181808369, 1.5265910884855012e-12
0.011251362587106661, 1.5263315878560763e-12
0.011256545742750096, 1.526071323496701e-12
0.011261731286113437, 1.5258102944206301e-12
0.01126691921829663, 1.5255484996399584e-12
0.011272109540400137, 1.5252859381656166e-12
0.01127730225352492, 1.5250226090073747e-12
0.011282497358772443, 1.5247585111738356e-12
0.011287694857244682, 1.5244936436724377e-12
0.011292894750044134, 1.52422800550945e-12
0.011298097038273782, 1.5239615956899748e-12
0.011303301723037128, 1.5236944132179424e-12
0.011308508805438178, 1.5234264570961134e-12
0.011313718286581459, 1.5231577263260734e-12
0.01131893016757199, 1.5228882199082346e-12
0.011324144449515312, 1.5226179368418347e-12
0.011329361133517459, 1.5223468761249332e-12
0.011334580220684998, 1.5220750367544102e-12
0.01133980171212499, 1.5218024177259692e-12
0.011345025608945005, 1.52152901803413e-12
0.011350251912253126, 1.521254836672231e-12
0.011355480623157957, 1.520979872632427e-12
0.011360711742768597, 1.5207041249056866e-12
0.011365945272194663, 1.520427592481793e-12
0.011371181212546278, 1.5201502743493418e-12
0.011376419564934093, 1.5198721694957376e-12
0.011381660330469251, 1.5195932769071958e-12
0.011386903510263415, 1.5193135955687397e-12
0.011392149105428755, 1.5190331244641988e-12
0.011397397117077969, 1.5187518625762077e-12
0.01140264754632425, 1.518469808886206e-12
0.011407900394281311, 1.5181869623744336e-12
0.01141315566206337, 1.5179033220199343e-12
0.011418413350785181, 1.5176188868005494e-12
0.011423673461561987, 1.5173336556929194e-12
0.011428935995509556, 1.5170476276724813e-12
0.011434200953744162, 1.5167608017134688e-12
0.01143946833738261, 1.5164731767889089e-12
0.011444738147542204, 1.5161847518706205e-12
0.011450010385340766, 1.5158955259292157e-12
0.011455285051896628, 1.5156054979340957e-12
0.011460562148328659, 1.51531466685345e-12
0.01146584167575622, 1.5150230316542555e-12
0.011471123635299188, 1.5147305913022757e-12
0.011476408028077976, 1.5144373447620571e-12
0.011481694855213496, 1.51414329099693e-12
0.011486984117827182, 1.5138484289690064e-12
0.011492275817040981, 1.5135527576391783e-12
0.011497569953977356, 1.5132562759671165e-12
0.011502866529759301, 1.5129589829112687e-12
0.011508165545510311, 1.5126608774288594e-12
0.011513467002354399, 1.5123619584758866e-12
0.011518770901416113, 1.512062225007123e-12
0.011524077243820501, 1.511761675976111e-12
0.011529386030693136, 1.5114603103351648e-12
0.011534697263160105, 1.5111581270353669e-12
0.011540010942348026, 1.5108551250265676e-12
0.011545327069384024, 1.5105513032573825e-12
0.011550645645395747, 1.510246660675193e-12
0.011555966671511356, 1.5099411962261432e-12
0.011561290148859552, 1.5096349088551372e-12
0.011566616078569535, 1.5093277975058424e-12
0.01157194446177103, 1.5090198611206833e-12
0.011577275299594283, 1.5087110986408425e-12
0.011582608593170073, 1.5084015090062575e-12
0.011587944343629683, 1.5080910911556222e-12
0.011593282552104924, 1.507779844026382e-12
0.01159862321972812, 1.507467766554736e-12
0.01160396634763214, 1.507154857675631e-12
0.011609311936950351, 1.5068411163227646e-12
0.011614659988816653, 1.506526541428581e-12
0.011620010504365457, 1.506211131924271e-12
0.01162536348473172, 1.5058948867397689e-12
0.0116307189310509, 1.5055778048037527e-12
0.011636076844458984, 1.5052598850436425e-12
0.01164143722609248, 1.5049411263855977e-12
0.011646800077088435, 1.504621527754516e-12
0.011652165398584402, 1.5043010880740334e-12
0.011657533191718465, 1.5039798062665225e-12
0.011662903457629223, 1.5036576812530877e-12
0.011668276197455823, 1.503334711953568e-12
0.011673651412337912, 1.5030108972865338e-12
0.011679029103415674, 1.5026862361692849e-12
0.01168440927182981, 1.5023607275178498e-12
0.011689791918721566, 1.5020343702469842e-12
0.01169517704523269, 1.5017071632701688e-12
0.011700564652505468, 1.501379105499609e-12
0.011705954741682708, 1.501050195846233e-12
0.011711347313907753, 1.500720433219689e-12
0.011716742370324464, 1.5003898165283457e-12
0.011722139912077231, 1.5000583446792906e-12
0.011727539940310965, 1.4997260165783266e-12
0.011732942456171123, 1.4993928311299723e-12
0.011738347460803673, 1.4990587872374604e-12
0.011743754955355113, 1.4987238838027352e-12
0.01174916494097247, 1.4983881197264536e-12
0.011754577418803308, 1.498051493907979e-12
0.011759992389995711, 1.497714005245384e-12
0.011765409855698293, 1.4973756526354489e-12
0.011770829817060192, 1.4970364349736565e-12
0.01177625227523109, 1.4966963511541934e-12
0.01178167723136119, 1.4963554000699487e-12
0.011787104686601218, 1.4960135806125132e-12
0.011792534642102436, 1.4956708916721733e-12
0.011797967099016647, 1.495327332137915e-12
0.011803402058496169, 1.4949829008974193e-12
0.011808839521693856, 1.4946375968370629e-12
0.011814279489763088, 1.4942914188419133e-12
0.011819721963857796, 1.4939443657957302e-12
0.01182516694513242, 1.4935964365809637e-12
0.011830614434741942, 1.4932476300787516e-12
0.011836064433841867, 1.4928979451689185e-12
0.011841516943588254, 1.4925473807299747e-12
0.011846971965137674, 1.4921959356391125e-12
0.011852429499647234, 1.49184360877221e-12
0.011857889548274577, 1.4914903990038233e-12
0.011863352112177886, 1.4911363052071875e-12
0.011868817192515866, 1.4907813262542166e-12
0.011874284790447756, 1.4904254610155011e-12
0.011879754907133349, 1.4900687083603041e-12
0.011885227543732946, 1.4897110671565643e-12
0.011890702701407395, 1.4893525362708901e-12
0.011896180381318079, 1.4889931145685613e-12
0.011901660584626906, 1.488632800913525e-12
0.011907143312496342, 1.4882715941683959e-12
0.011912628566089368, 1.4879094931944539e-12
0.011918116346569498, 1.4875464968516434e-12
0.011923606655100808, 1.487182603998571e-12
0.011929099492847883, 1.4868178134925033e-12
0.011934594860975856, 1.4864521241893668e-12
0.011940092760650394, 1.4860855349437464e-12
0.011945593193037701, 1.4857180446088814e-12
0.011951096159304526, 1.485349652036668e-12
0.011956601660618148, 1.4849803560776534e-12
0.011962109698146374, 1.4846101555810384e-12
0.011967620273057575, 1.4842390493946708e-12
0.011973133386520639, 1.4838670363650504e-12
0.011978649039704997, 1.4834941153373213e-12
0.011984167233780615, 1.4831202851552746e-12
0.011989687969918016, 1.482745544661343e-12
0.011995211249288243, 1.4823698926966039e-12
0.012000737073062885, 1.4819933281007733e-12
0.012006265442414064, 1.4816158497122075e-12
0.012011796358514461, 1.4812374563679e-12
0.012017329822537278, 1.4808581469034802e-12
0.012022865835656265, 1.4804779201532115e-12
0.012028404399045707, 1.4800967749499908e-12
0.012033945513880444, 1.4797147101253449e-12
0.012039489181335846, 1.479331724509432e-12
0.012045035402587823, 1.4789478169310367e-12
0.012050584178812827, 1.4785629862175714e-12
0.012056135511187865, 1.4781772311950717e-12
0.012061689400890474, 1.4777905506881991e-12
0.012067245849098731, 1.477402943520234e-12
0.012072804856991259, 1.4770144085130796e-12
0.012078366425747234, 1.476624944487255e-12
0.012083930556546362, 1.4762345502618978e-12
0.0120894972505689, 1.4758432246547607e-12
0.012095066508995637, 1.4754509664822113e-12
0.012100638333007927, 1.4750577745592263e-12
0.012106212723787651, 1.4746636476993956e-12
0.012111789682517238, 1.4742685847149177e-12
0.012117369210379661, 1.4738725844165988e-12
0.012122951308558448, 1.4734756456138476e-12
0.01212853597823766, 1.4730777671146818e-12
0.01213412322060191, 1.4726789477257185e-12
0.012139713036836346, 1.4722791862521772e-12
0.012145305428126684, 1.4718784814978754e-12
0.012150900395659164, 1.4714768322652286e-12
0.012156497940620585, 1.4710742373552506e-12
0.012162098064198282, 1.4706706955675469e-12
0.012167700767580156, 1.4702662057003159e-12
0.012173306051954635, 1.4698607665503498e-12
0.012178913918510705, 1.469454376913028e-12
0.01218452436843789, 1.469047035582319e-12
0.012190137402926283, 1.4686387413507775e-12
0.012195753023166505, 1.4682294930095427e-12
0.012201371230349731, 1.4678192893483366e-12
0.012206992025667681, 1.4674081291554644e-12
0.012212615410312641, 1.4669960112178089e-12
0.012218241385477427, 1.4665829343208324e-12
0.012223869952355412, 1.4661688972485737e-12
0.012229501112140512, 1.4657538987836466e-12
0.012235134866027213, 1.4653379377072371e-12
0.01224077121521053, 1.4649210127991047e-12
0.012246410160886036, 1.4645031228375767e-12
0.01225205170424985, 1.464084266599552e-12
0.012257695846498657, 1.4636644428604922e-12
0.01226334258882968, 1.4632436503944268e-12
0.012268991932440692, 1.4628218879739485e-12
0.012274643878530023, 1.4623991543702105e-12
0.01228029842829656, 1.4619754483529273e-12
