m (eV), gayy (GeV^(-1))
0.01, 1.84333717392598e-12
0.010004606691503637, 1.843227384343089e-12
0.010009215505167928, 1.843116953920657e-12
0.0100138264419705, 1.843005881802007e-12
0.010018439502889411, 1.8428941671294516e-12
0.010023054688903176, 1.8427818090442843e-12
0.010027672000990756, 1.8426688066867847e-12
0.010032291440131577, 1.842555159196215e-12
0.010036913007305503, 1.8424408657108167e-12
0.010041536703492851, 1.842325925367815e-12
0.010046162529674389, 1.8422103373034108e-12
0.010050790486831348, 1.842094100652783e-12
0.0100554205759454, 1.84197721455009e-12
0.010060052797998669, 1.841859678128462e-12
0.01006468715397373, 1.8417414905200068e-12
0.010069323644853629, 1.841622650855802e-12
0.010073962271621838, 1.8415031582659e-12
0.010078603035262302, 1.841383011879321e-12
0.010083245936759404, 1.8412622108240584e-12
0.010087890977097997, 1.84114075422707e-12
0.010092538157263378, 1.841018641214283e-12
0.010097187478241296, 1.84089587091059e-12
0.010101838941017955, 1.840772442439848e-12
0.010106492546580022, 1.8406483549248784e-12
0.010111148295914613, 1.8405236074874636e-12
0.010115806190009291, 1.840398199248348e-12
0.010120466229852082, 1.840272129327236e-12
0.01012512841643147, 1.8401453968427895e-12
0.01012979275073639, 1.8400180009126308e-12
0.010134459233756232, 1.839889940653334e-12
0.010139127866480835, 1.8397612151804324e-12
0.010143798649900514, 1.8396318236084113e-12
0.010148471585006024, 1.8395017650507086e-12
0.010153146672788578, 1.839371038619714e-12
0.010157823914239843, 1.8392396434267684e-12
0.01016250331035196, 1.8391075785821594e-12
0.010167184862117507, 1.838974843195124e-12
0.010171868570529527, 1.8388414363738472e-12
0.010176554436581518, 1.838707357225456e-12
0.010181242461267448, 1.8385726048560234e-12
0.010185932645581725, 1.8384371783705663e-12
0.010190624990519226, 1.838301076873041e-12
0.010195319497075278, 1.838164299466347e-12
0.010200016166245681, 1.8380268452523195e-12
0.01020471499902668, 1.8378887133317366e-12
0.010209415996414985, 1.837749902804308e-12
0.010214119159407757, 1.8376104127686836e-12
0.010218824489002633, 1.837470242322443e-12
0.010223531986197697, 1.8373293905621037e-12
0.010228241651991493, 1.8371878565831106e-12
0.010232953487383024, 1.8370456394798435e-12
0.010237667493371768, 1.8369027383456083e-12
0.010242383670957644, 1.8367591522726406e-12
0.010247102021141043, 1.8366148803521023e-12
0.010251822544922806, 1.8364699216740813e-12
0.010256545243304254, 1.8363242753275906e-12
0.010261270117287152, 1.836177940400565e-12
0.010265997167873735, 1.8360309159798623e-12
0.010270726396066689, 1.835883201151261e-12
0.01027545780286918, 1.8357347949994576e-12
0.010280191389284826, 1.8355856966080694e-12
0.010284927156317703, 1.8354359050596277e-12
0.01028966510497235, 1.835285419435583e-12
0.010294405236253783, 1.8351342388162965e-12
0.010299147551167467, 1.8349823622810436e-12
0.010303892050719334, 1.8348297889080153e-12
0.010308638735915771, 1.8346765177743084e-12
0.01031338760776365, 1.8345225479559313e-12
0.01031813866727029, 1.8343678785278005e-12
0.010322891915443475, 1.834212508563739e-12
0.010327647353291452, 1.834056437136476e-12
0.010332404981822947, 1.8338996633176445e-12
0.010337164802047136, 1.8337421861777807e-12
0.010341926814973664, 1.833584004786323e-12
0.010346691021612635, 1.83342511821161e-12
0.010351457422974638, 1.8332655255208796e-12
0.010356226020070703, 1.8331052257802673e-12
0.010360996813912338, 1.8329442180548075e-12
0.010365769805511522, 1.832782501408427e-12
0.010370544995880693, 1.8326200749039477e-12
0.010375322386032752, 1.832456937603086e-12
0.010380101976981068, 1.832293088566449e-12
0.010384883769739492, 1.832128526853532e-12
0.010389667765322323, 1.8319632515227236e-12
0.010394453964744334, 1.8317972616312963e-12
0.010399242369020761, 1.831630556235412e-12
0.010404032979167322, 1.8314631343901157e-12
0.010408825796200191, 1.8312949951493366e-12
0.01041362082113601, 1.8311261375658876e-12
0.010418418054991885, 1.830956560691462e-12
0.01042321749878541, 1.830786263576634e-12
0.010428019153534631, 1.8306152452708556e-12
0.010432823020258065, 1.8304435048224565e-12
0.010437629099974697, 1.8302710412786433e-12
0.010442437393703992, 1.830097853685496e-12
0.010447247902465874, 1.8299239410879696e-12
0.010452060627280742, 1.8297493025298903e-12
0.010456875569169456, 1.829573937053956e-12
0.010461692729153363, 1.8293978437017336e-12
0.010466512108254266, 1.8292210215136582e-12
0.010471333707494446, 1.8290434695290327e-12
0.010476157527896646, 1.8288651867860257e-12
0.010480983570484097, 1.8286861723216697e-12
0.010485811836280487, 1.82850642517186e-12
0.010490642326309979, 1.828325944371354e-12
0.010495475041597204, 1.82814472895377e-12
0.010500309983167278, 1.8279627779515846e-12
0.010505147152045778, 1.8277800903961328e-12
0.010509986549258755, 1.8275966653176067e-12
0.01051482817583273, 1.8274125017450514e-12
0.01051967203279471, 1.8272275987063678e-12
0.010524518121172163, 1.8270419552283095e-12
0.010529366441993029, 1.8268555703364793e-12
0.010534216996285723, 1.8266684430553327e-12
0.010539069785079147, 1.826480572408171e-12
0.010543924809402663, 1.8262919574171434e-12
0.010548782070286108, 1.8261025971032466e-12
0.010553641568759792, 1.8259124904863204e-12
0.010558503305854516, 1.8257216365850475e-12
0.010563367282601535, 1.8255300344169535e-12
0.010568233500032588, 1.8253376829984038e-12
0.010573101959179888, 1.8251445813446044e-12
0.010577972661076131, 1.8249507284695956e-12
0.010582845606754479, 1.824756123386259e-12
0.010587720797248571, 1.8245607651063073e-12
0.01059259823359252, 1.824364652640289e-12
0.010597477916820933, 1.824167784997586e-12
0.010602359847968873, 1.823970161186408e-12
0.010607244028071885, 1.823771780213797e-12
0.01061213045816599, 1.8235726410856244e-12
0.010617019139287701, 1.823372742806585e-12
0.010621910072473992, 1.823172084380202e-12
0.010626803258762316, 1.8229706648088233e-12
0.010631698699190607, 1.822768483093618e-12
0.010636596394797285, 1.822565538234578e-12
0.010641496346621235, 1.8223618292305144e-12
0.010646398555701831, 1.8221573550790583e-12
0.010651303023078913, 1.8219521147766583e-12
0.01065620974979282, 1.8217461073185788e-12
0.010661118736884355, 1.8215393316988975e-12
0.0106660299853948, 1.8213317869105083e-12
0.01067094349636592, 1.8211234719451156e-12
0.010675859270839968, 1.8209143857932347e-12
0.010680777309859666, 1.8207045274441894e-12
0.010685697614468222, 1.8204938958861132e-12
0.010690620185709317, 1.8202824901059443e-12
0.010695545024627127, 1.820070309089428e-12
0.010700472132266298, 1.819857351821111e-12
0.010705401509671959, 1.8196436172843446e-12
0.010710333157889714, 1.8194291044612802e-12
0.010715267077965671, 1.8192138123328684e-12
0.010720203270946397, 1.818997739878858e-12
0.010725141737878948, 1.8187808860777958e-12
0.010730082479810861, 1.818563249907024e-12
0.010735025497790167, 1.818344830342677e-12
0.010739970792865365, 1.818125626359684e-12
0.010744918366085439, 1.8179056369317643e-12
0.01074986821849987, 1.8176848610314274e-12
0.010754820351158607, 1.8174632976299717e-12
0.010759774765112088, 1.8172409456974818e-12
0.01076473146141123, 1.8170178042028282e-12
0.010769690441107451, 1.8167938721136671e-12
0.010774651705252635, 1.8165691483964348e-12
0.010779615254899158, 1.8163436320163525e-12
0.010784581091099874, 1.8161173219374183e-12
0.010789549214908137, 1.8158902171224106e-12
0.010794519627377775, 1.8156623165328852e-12
0.010799492329563103, 1.8154336191291724e-12
0.010804467322518916, 1.815204123870379e-12
0.010809444607300512, 1.8149738297143827e-12
0.010814424184963659, 1.8147427356178337e-12
0.010819406056564618, 1.8145108405361525e-12
0.010824390223160129, 1.8142781434235278e-12
0.010829376685807435, 1.8140446432329167e-12
0.010834365445564254, 1.8138103389160404e-12
0.01083935650348879, 1.8135752294233868e-12
0.010844349860639736, 1.8133393137042048e-12
0.010849345518076283, 1.813102590706506e-12
0.010854343476858095, 1.8128650593770619e-12
0.010859343738045335, 1.8126267186614025e-12
0.010864346302698641, 1.8123875675038166e-12
0.010869351171879161, 1.8121476048473454e-12
0.010874358346648514, 1.8119068296337891e-12
0.010879367828068814, 1.8116652408036965e-12
0.010884379617202658, 1.8114228372963722e-12
0.01088939371511315, 1.8111796180498669e-12
0.010894410122863865, 1.8109355820009827e-12
0.010899428841518878, 1.8106907280852674e-12
0.010904449872142744, 1.810445055237016e-12
0.010909473215800526, 1.8101985623892671e-12
0.010914498873557762, 1.8099512484738008e-12
0.010919526846480489, 1.8097031124211406e-12
0.010924557135635225, 1.8094541531605504e-12
0.010929589742088996, 1.8092043696200291e-12
0.010934624666909308, 1.8089537607263172e-12
0.010939661911164156, 1.808702325404888e-12
0.010944701475922032, 1.8084500625799492e-12
0.010949743362251928, 1.8081969711744417e-12
0.010954787571223317, 1.8079430501100372e-12
0.010959834103906167, 1.8076882983071383e-12
0.010964882961370933, 1.8074327146848743e-12
0.010969934144688583, 1.8071762981611014e-12
0.010974987654930561, 1.8069190476524027e-12
0.01098004349316881, 1.8066609620740836e-12
0.010985101660475758, 1.8064020403401727e-12
0.010990162157924347, 1.8061422813634194e-12
0.010995224986587997, 1.8058816840552913e-12
0.011000290147540625, 1.8056202473259762e-12
0.01100535764185664, 1.8053579700843774e-12
0.011010427470610961, 1.805094851238112e-12
0.011015499634878988, 1.8048308896935123e-12
0.011020574135736618, 1.804566084355621e-12
0.011025650974260242, 1.8043004341281933e-12
0.011030730151526759, 1.8040339379136919e-12
0.011035811668613553, 1.803766594613288e-12
0.011040895526598506, 1.803498403126857e-12
0.01104598172655999, 1.803229362352982e-12
0.011051070269576899, 1.8029594711889468e-12
0.011056161156728592, 1.8026887285307368e-12
0.011061254389094945, 1.8024171332730389e-12
0.01106634996775632, 1.8021446843092373e-12
0.011071447893793593, 1.8018713805314138e-12
0.011076548168288122, 1.801597220830345e-12
0.011081650792321762, 1.8013222040955036e-12
0.011086755766976887, 1.8010463292150525e-12
0.01109186309333635, 1.800769595075846e-12
0.011096972772483506, 1.8004920005634294e-12
0.011102084805502213, 1.800213544562035e-12
0.011107199193476823, 1.7999342259545814e-12
0.011112315937492201, 1.7996540436226728e-12
0.011117435038633699, 1.799372996446596e-12
0.011122556497987162, 1.7990910833053206e-12
0.01112768031663896, 1.7988083030764965e-12
0.011132806495675945, 1.7985246546364515e-12
0.011137935036185471, 1.7982401368601925e-12
0.01114306593925539, 1.7979547486214009e-12
0.011148199205974072, 1.7976684887924324e-12
0.011153334837430372, 1.7973813562443155e-12
0.011158472834713652, 1.7970933498467513e-12
0.011163613198913768, 1.7968044684681097e-12
0.011168755931121101, 1.7965147109754273e-12
0.011173901032426508, 1.7962240762344099e-12
0.011179048503921363, 1.7959325631094262e-12
0.011184198346697533, 1.7956401704635104e-12
0.011189350561847404, 1.7953468971583576e-12
0.01119450515046385, 1.795052742054323e-12
0.011199662113640256, 1.7947577040104212e-12
0.0112048214524705, 1.7944617818843248e-12
0.011209983168048986, 1.7941649745323616e-12
0.0112151472614706, 1.7938672808095127e-12
0.011220313733830745, 1.7935686995694144e-12
0.011225482586225317, 1.7932692296643512e-12
0.011230653819750734, 1.7929688699452598e-12
0.011235827435503906, 1.7926676192617228e-12
0.011241003434582252, 1.792365476461971e-12
0.01124618181808369, 1.7920624403928795e-12
0.011251362587106661, 1.791758509899966e-12
0.011256545742750096, 1.7914536838273907e-12
0.011261731286113437, 1.7911479610179546e-12
0.01126691921829663, 1.7908413403130959e-12
0.011272109540400137, 1.7905338205528913e-12
0.01127730225352492, 1.7902254005760518e-12
0.011282497358772443, 1.7899160792199234e-12
0.011287694857244682, 1.7896058553204844e-12
0.011292894750044134, 1.7892947277123412e-12
0.011298097038273782, 1.7889826952287342e-12
0.011303301723037128, 1.788669756701527e-12
0.011308508805438178, 1.7883559109612126e-12
0.011313718286581459, 1.788041156836906e-12
0.01131893016757199, 1.7877254931563456e-12
0.011324144449515312, 1.7874089187458913e-12
0.011329361133517459, 1.787091432430524e-12
0.011334580220684998, 1.7867730330338396e-12
0.01133980171212499, 1.786453719378054e-12
0.011345025608945005, 1.7861334902839957e-12
0.011350251912253126, 1.7858123445711062e-12
0.011355480623157957, 1.7854902810574402e-12
0.011360711742768597, 1.7851672985596627e-12
0.011365945272194663, 1.7848433958930443e-12
0.011371181212546278, 1.7845185718714672e-12
0.011376419564934093, 1.7841928253074128e-12
0.011381660330469251, 1.7838661550119719e-12
0.011386903510263415, 1.783538559794834e-12
0.011392149105428755, 1.7832100384642905e-12
0.011397397117077969, 1.7828805898272295e-12
0.01140264754632425, 1.7825502126891398e-12
0.011407900394281311, 1.7822189058541026e-12
0.01141315566206337, 1.7818866681247951e-12
0.011418413350785181, 1.7815534983024852e-12
0.011423673461561987, 1.7812193951870323e-12
0.011428935995509556, 1.7808843575768856e-12
0.011434200953744162, 1.7805483842690804e-12
0.01143946833738261, 1.7802114740592386e-12
0.011444738147542204, 1.7798736257415658e-12
0.011450010385340766, 1.7795348381088507e-12
0.011455285051896628, 1.7791951099524638e-12
0.011460562148328659, 1.7788544400623517e-12
0.01146584167575622, 1.7785128272270417e-12
0.011471123635299188, 1.7781702702336365e-12
0.011476408028077976, 1.7778267678678127e-12
0.011481694855213496, 1.7774823189138189e-12
0.011486984117827182, 1.777136922154476e-12
0.011492275817040981, 1.776790576371174e-12
0.011497569953977356, 1.7764432803438706e-12
0.011502866529759301, 1.776095032851089e-12
0.011508165545510311, 1.775745832669918e-12
0.011513467002354399, 1.7753956785760082e-12
0.011518770901416113, 1.7750445693435717e-12
0.011524077243820501, 1.7746925037453801e-12
0.011529386030693136, 1.774339480552763e-12
0.011534697263160105, 1.773985498535606e-12
0.011540010942348026, 1.7736305564623488e-12
0.011545327069384024, 1.773274653099985e-12
0.011550645645395747, 1.7729177872140579e-12
0.011555966671511356, 1.7725599575686619e-12
0.011561290148859552, 1.772201162926437e-12
0.011566616078569535, 1.7718414020485714e-12
0.01157194446177103, 1.7714806736947973e-12
0.011577275299594283, 1.7711189766233893e-12
0.011582608593170073, 1.7707563095911625e-12
0.011587944343629683, 1.7703926713534728e-12
0.011593282552104924, 1.7700280606642132e-12
0.01159862321972812, 1.7696624762758114e-12
0.01160396634763214, 1.7692959169392326e-12
0.011609311936950351, 1.7689283814039716e-12
0.011614659988816653, 1.7685598684180548e-12
0.011620010504365457, 1.76819037672804e-12
0.01162536348473172, 1.767819905079009e-12
0.0116307189310509, 1.7674484522145734e-12
0.011636076844458984, 1.7670760168768658e-12
0.01164143722609248, 1.766702597806543e-12
0.011646800077088435, 1.7663281937427811e-12
0.011652165398584402, 1.7659528034232774e-12
0.011657533191718465, 1.7655764255842452e-12
0.011662903457629223, 1.7651990589604138e-12
0.011668276197455823, 1.764820702285025e-12
0.011673651412337912, 1.7644413542898349e-12
0.011679029103415674, 1.7640610137051101e-12
0.01168440927182981, 1.7636796792596237e-12
0.011689791918721566, 1.7632973496806585e-12
0.01169517704523269, 1.7629140236940005e-12
0.011700564652505468, 1.7625297000239406e-12
0.011705954741682708, 1.7621443773932721e-12
0.011711347313907753, 1.7617580545232868e-12
0.011716742370324464, 1.7613707301337753e-12
0.011722139912077231, 1.7609824029430262e-12
0.011727539940310965, 1.760593071667822e-12
0.011732942456171123, 1.7602027350234393e-12
0.011738347460803673, 1.7598113917236445e-12
0.011743754955355113, 1.7594190404806953e-12
0.01174916494097247, 1.7590256800053375e-12
0.011754577418803308, 1.7586313090068024e-12
0.011759992389995711, 1.7582359261928046e-12
0.011765409855698293, 1.7578395302695452e-12
0.011770829817060192, 1.757442119941703e-12
0.01177625227523109, 1.7570436939124364e-12
0.01178167723136119, 1.756644250883383e-12
0.011787104686601218, 1.7562437895546556e-12
0.011792534642102436, 1.7558423086248402e-12
0.011797967099016647, 1.7554398067909948e-12
0.011803402058496169, 1.755036282748649e-12
0.011808839521693856, 1.7546317351918015e-12
0.011814279489763088, 1.754226162812917e-12
0.011819721963857796, 1.7538195643029244e-12
0.01182516694513242, 1.7534119383512183e-12
0.011830614434741942, 1.7530032836456536e-12
0.011836064433841867, 1.7525935988725455e-12
0.011841516943588254, 1.7521828827166673e-12
0.011846971965137674, 1.751771133861247e-12
0.011852429499647234, 1.7513583509879703e-12
0.011857889548274577, 1.750944532776974e-12
0.011863352112177886, 1.750529677906845e-12
0.011868817192515866, 1.75011378505462e-12
0.011874284790447756, 1.749696852895785e-12
0.011879754907133349, 1.7492788801042682e-12
0.011885227543732946, 1.7488598653524447e-12
0.011890702701407395, 1.7484398073111294e-12
0.011896180381318079, 1.7480187046495795e-12
0.011901660584626906, 1.747596556035489e-12
0.011907143312496342, 1.7471733601349883e-12
0.011912628566089368, 1.7467491156126444e-12
0.011918116346569498, 1.7463238211314558e-12
0.011923606655100808, 1.7458974753528531e-12
0.011929099492847883, 1.7454700769366965e-12
0.011934594860975856, 1.7450416245412723e-12
0.011940092760650394, 1.7446121168232944e-12
0.011945593193037701, 1.7441815524378996e-12
0.011951096159304526, 1.7437499300386474e-12
0.011956601660618148, 1.743317248277517e-12
0.011962109698146374, 1.7428835058049075e-12
0.011967620273057575, 1.742448701269632e-12
0.011973133386520639, 1.7420128333189217e-12
0.011978649039704997, 1.7415759005984195e-12
0.011984167233780615, 1.741137901752179e-12
0.011989687969918016, 1.740698835422663e-12
0.011995211249288243, 1.7402587002507435e-12
0.012000737073062885, 1.7398174948756968e-12
0.012006265442414064, 1.7393752179352033e-12
0.012011796358514461, 1.7389318680653459e-12
0.012017329822537278, 1.7384874439006076e-12
0.012022865835656265, 1.73804194407387e-12
0.012028404399045707, 1.7375953672164107e-12
0.012033945513880444, 1.7371477119579013e-12
0.012039489181335846, 1.7366989769264078e-12
0.012045035402587823, 1.7362491607483862e-12
0.012050584178812827, 1.7357982620486826e-12
0.012056135511187865, 1.735346279450529e-12
0.012061689400890474, 1.7348932115755434e-12
0.012067245849098731, 1.7344390570437273e-12
0.012072804856991259, 1.733983814473466e-12
0.012078366425747234, 1.7335274824815194e-12
0.012083930556546362, 1.7330700596830304e-12
0.0120894972505689, 1.7326115446915156e-12
0.012095066508995637, 1.7321519361188676e-12
0.012100638333007927, 1.731691232575348e-12
0.012106212723787651, 1.7312294326695934e-12
0.012111789682517238, 1.7307665350086042e-12
0.012117369210379661, 1.7303025381977534e-12
0.012122951308558448, 1.7298374408407706e-12
0.01212853597823766, 1.729371241539757e-12
0.01213412322060191, 1.7289039388951692e-12
0.012139713036836346, 1.7284355315058253e-12
0.012145305428126684, 1.7279660179688996e-12
0.012150900395659164, 1.7274953968799224e-12
0.012156497940620585, 1.7270236668327785e-12
0.012162098064198282, 1.7265508264197027e-12
0.012167700767580156, 1.7260768742312789e-12
0.012173306051954635, 1.7256018088564413e-12
0.012178913918510705, 1.725125628882468e-12
0.01218452436843789, 1.7246483328949821e-12
0.012190137402926283, 1.7241699194779483e-12
0.012195753023166505, 1.7236903872136714e-12
0.012201371230349731, 1.7232097346827948e-12
0.012206992025667681, 1.7227279604642991e-12
0.012212615410312641, 1.7222450631354973e-12
0.012218241385477427, 1.7217610412720362e-12
0.012223869952355412, 1.7212758934478937e-12
0.012229501112140512, 1.7207896182353753e-12
0.012235134866027213, 1.7203022142051134e-12
0.01224077121521053, 1.7198136799260664e-12
0.012246410160886036, 1.7193240139655137e-12
0.01225205170424985, 1.7188332148890578e-12
0.012257695846498657, 1.7183412812606187e-12
0.01226334258882968, 1.7178482116424332e-12
0.012268991932440692, 1.717354004595056e-12
0.012274643878530023, 1.7168586586773513e-12
0.01228029842829656, 1.716362172446497e-12
0.012285955582939736, 1.7158645444579797e-12
