m (eV), gayy (GeV^(-1))
0.01, 1.844509919273149e-12
0.010004606691503637, 1.8443999534523567e-12
0.010009215505167928, 1.8442893462373578e-12
0.0100138264419705, 1.844178096770757e-12
0.010018439502889411, 1.844066204194144e-12
0.010023054688903176, 1.8439536676480924e-12
0.010027672000990756, 1.8438404862721605e-12
0.010032291440131577, 1.8437266592048864e-12
0.010036913007305503, 1.8436121855837886e-12
0.010041536703492851, 1.843497064545366e-12
0.010046162529674389, 1.843381295225095e-12
0.010050790486831348, 1.8432648767574288e-12
0.0100554205759454, 1.8431478082757973e-12
0.010060052797998669, 1.8430300889126037e-12
0.01006468715397373, 1.8429117177992256e-12
0.010069323644853629, 1.842792694066011e-12
0.010073962271621838, 1.8426730168422826e-12
0.010078603035262302, 1.8425526852563287e-12
0.010083245936759404, 1.8424316984354097e-12
0.010087890977097997, 1.8423100555057498e-12
0.010092538157263378, 1.8421877555925436e-12
0.010097187478241296, 1.842064797819947e-12
0.010101838941017955, 1.8419411813110823e-12
0.010106492546580022, 1.841816905188034e-12
0.010111148295914613, 1.8416919685718465e-12
0.010115806190009291, 1.841566370582526e-12
0.010120466229852082, 1.8414401103390383e-12
0.01012512841643147, 1.841313186959304e-12
0.01012979275073639, 1.8411855995602033e-12
0.010134459233756232, 1.841057347257571e-12
0.010139127866480835, 1.8409284291661963e-12
0.010143798649900514, 1.84079884439982e-12
0.010148471585006024, 1.8406685920711375e-12
0.010153146672788578, 1.8405376712917913e-12
0.010157823914239843, 1.840406081172376e-12
0.01016250331035196, 1.840273820822433e-12
0.010167184862117507, 1.8401408893504515e-12
0.010171868570529527, 1.8400072858638654e-12
0.010176554436581518, 1.839873009469054e-12
0.010181242461267448, 1.8397380592713393e-12
0.010185932645581725, 1.8396024343749857e-12
0.010190624990519226, 1.839466133883198e-12
0.010195319497075278, 1.8393291568981216e-12
0.010200016166245681, 1.8391915025208386e-12
0.01020471499902668, 1.83905316985137e-12
0.010209415996414985, 1.8389141579886715e-12
0.010214119159407757, 1.8387744660306342e-12
0.010218824489002633, 1.8386340930740823e-12
0.010223531986197697, 1.8384930382147724e-12
0.010228241651991493, 1.8383513005473913e-12
0.010232953487383024, 1.8382088791655574e-12
0.010237667493371768, 1.8380657731618157e-12
0.010242383670957644, 1.8379219816276395e-12
0.010247102021141043, 1.8377775036534274e-12
0.010251822544922806, 1.837632338328503e-12
0.010256545243304254, 1.8374864847411152e-12
0.010261270117287152, 1.8373399419784325e-12
0.010265997167873735, 1.8371927091265455e-12
0.010270726396066689, 1.8370447852704663e-12
0.01027545780286918, 1.8368961694941217e-12
0.010280191389284826, 1.8367468608803594e-12
0.010284927156317703, 1.836596858510942e-12
0.01028966510497235, 1.8364461614665466e-12
0.010294405236253783, 1.8362947688267636e-12
0.010299147551167467, 1.8361426796700956e-12
0.010303892050719334, 1.8359898930739582e-12
0.010308638735915771, 1.835836408114675e-12
0.01031338760776365, 1.835682223867477e-12
0.01031813866727029, 1.8355273394065047e-12
0.010322891915443475, 1.835371753804804e-12
0.010327647353291452, 1.8352154661343256e-12
0.010332404981822947, 1.8350584754659224e-12
0.010337164802047136, 1.83490078086935e-12
0.010341926814973664, 1.8347423814132663e-12
0.010346691021612635, 1.834583276165227e-12
0.010351457422974638, 1.834423464191688e-12
0.010356226020070703, 1.8342629445579997e-12
0.010360996813912338, 1.8341017163284114e-12
0.010365769805511522, 1.833939778566065e-12
0.010370544995880693, 1.8337771303329956e-12
0.010375322386032752, 1.833613770690131e-12
0.010380101976981068, 1.8334496986972897e-12
0.010384883769739492, 1.833284913413179e-12
0.010389667765322323, 1.833119413895395e-12
0.010394453964744334, 1.83295319920042e-12
0.010399242369020761, 1.8327862683836228e-12
0.010404032979167322, 1.8326186204992553e-12
0.010408825796200191, 1.8324502546004535e-12
0.01041362082113601, 1.8322811697392337e-12
0.010418418054991885, 1.832111364966495e-12
0.01042321749878541, 1.8319408393320124e-12
0.010428019153534631, 1.8317695918844407e-12
0.010432823020258065, 1.831597621671312e-12
0.010437629099974697, 1.8314249277390308e-12
0.010442437393703992, 1.831251509132879e-12
0.010447247902465874, 1.831077364897007e-12
0.010452060627280742, 1.8309024940744404e-12
0.010456875569169456, 1.8307268957070736e-12
0.010461692729153363, 1.830550568835668e-12
0.010466512108254266, 1.830373512499853e-12
0.010471333707494446, 1.830195725738127e-12
0.010476157527896646, 1.83001720758785e-12
0.010480983570484097, 1.8298379570852445e-12
0.010485811836280487, 1.8296579732653988e-12
0.010490642326309979, 1.8294772551622606e-12
0.010495475041597204, 1.8292958018086347e-12
0.010500309983167278, 1.8291136122361877e-12
0.010505147152045778, 1.8289306854754403e-12
0.010509986549258755, 1.8287470205557708e-12
0.01051482817583273, 1.8285626165054096e-12
0.01051967203279471, 1.8283774723514417e-12
0.010524518121172163, 1.8281915871198037e-12
0.010529366441993029, 1.8280049598352808e-12
0.010534216996285723, 1.827817589521509e-12
0.010539069785079147, 1.8276294752009702e-12
0.010543924809402663, 1.827440615894994e-12
0.010548782070286108, 1.827251010623754e-12
0.010553641568759792, 1.8270606584062675e-12
0.010558503305854516, 1.826869558260395e-12
0.010563367282601535, 1.826677709202835e-12
0.010568233500032588, 1.8264851102491295e-12
0.010573101959179888, 1.826291760413657e-12
0.010577972661076131, 1.826097658709631e-12
0.010582845606754479, 1.8259028041491033e-12
0.010587720797248571, 1.825707195742959e-12
0.01059259823359252, 1.825510832500916e-12
0.010597477916820933, 1.8253137134315226e-12
0.010602359847968873, 1.8251158375421586e-12
0.010607244028071885, 1.824917203839032e-12
0.01061213045816599, 1.824717811327179e-12
0.010617019139287701, 1.824517659010461e-12
0.010621910072473992, 1.8243167458915633e-12
0.010626803258762316, 1.8241150709719972e-12
0.010631698699190607, 1.8239126332520935e-12
0.010636596394797285, 1.8237094317310047e-12
0.010641496346621235, 1.8235054654067013e-12
0.010646398555701831, 1.8233007332759753e-12
0.010651303023078913, 1.823095234334431e-12
0.01065620974979282, 1.8228889675764893e-12
0.010661118736884355, 1.822681931995386e-12
0.0106660299853948, 1.822474126583169e-12
0.01067094349636592, 1.822265550330696e-12
0.010675859270839968, 1.822056202227635e-12
0.010680777309859666, 1.8218460812624634e-12
0.010685697614468222, 1.8216351864224635e-12
0.010690620185709317, 1.821423516693725e-12
0.010695545024627127, 1.821211071061141e-12
0.010700472132266298, 1.820997848508407e-12
0.010705401509671959, 1.8207838480180208e-12
0.010710333157889714, 1.820569068571279e-12
0.010715267077965671, 1.8203535091482787e-12
0.010720203270946397, 1.8201371687279122e-12
0.010725141737878948, 1.819920046287869e-12
0.010730082479810861, 1.8197021408046326e-12
0.010735025497790167, 1.819483451253479e-12
0.010739970792865365, 1.819263976608477e-12
0.010744918366085439, 1.819043715842485e-12
0.01074986821849987, 1.8188226679271506e-12
0.010754820351158607, 1.8186008318329083e-12
0.010759774765112088, 1.8183782065289797e-12
0.01076473146141123, 1.8181547909833693e-12
0.010769690441107451, 1.8179305841628669e-12
0.010774651705252635, 1.8177055850330433e-12
0.010779615254899158, 1.8174797925582494e-12
0.010784581091099874, 1.8172532057016152e-12
0.010789549214908137, 1.8170258234250491e-12
0.010794519627377775, 1.8167976446892347e-12
0.010799492329563103, 1.8165686684536309e-12
0.010804467322518916, 1.8163388936764715e-12
0.010809444607300512, 1.8161083193147582e-12
0.010814424184963659, 1.8158769443242677e-12
0.010819406056564618, 1.8156447676595434e-12
0.010824390223160129, 1.8154117882738968e-12
0.010829376685807435, 1.8151780051194065e-12
0.010834365445564254, 1.8149434171469144e-12
0.01083935650348879, 1.8147080233060273e-12
0.010844349860639736, 1.8144718225451136e-12
0.010849345518076283, 1.8142348138113012e-12
0.010854343476858095, 1.8139969960504792e-12
0.010859343738045335, 1.8137583682072926e-12
0.010864346302698641, 1.8135189292251438e-12
0.010869351171879161, 1.813278678046189e-12
0.010874358346648514, 1.8130376136113387e-12
0.010879367828068814, 1.8127957348602547e-12
0.010884379617202658, 1.8125530407313505e-12
0.01088939371511315, 1.8123095301617869e-12
0.010894410122863865, 1.8120652020874735e-12
0.010899428841518878, 1.8118200554430654e-12
0.010904449872142744, 1.811574089161964e-12
0.010909473215800526, 1.8113273021763124e-12
0.010914498873557762, 1.8110796934169946e-12
0.010919526846480489, 1.8108312618136374e-12
0.010924557135635225, 1.8105820062946063e-12
0.010929589742088996, 1.8103319257870015e-12
0.010934624666909308, 1.810081019216662e-12
0.010939661911164156, 1.809829285508161e-12
0.010944701475922032, 1.8095767235848034e-12
0.010949743362251928, 1.8093233323686268e-12
0.010954787571223317, 1.8090691107803985e-12
0.010959834103906167, 1.808814057739615e-12
0.010964882961370933, 1.8085581721644995e-12
0.010969934144688583, 1.8083014529720005e-12
0.010974987654930561, 1.8080438990777918e-12
0.01098004349316881, 1.8077855093962703e-12
0.010985101660475758, 1.8075262828405521e-12
0.010990162157924347, 1.8072662183224757e-12
0.010995224986587997, 1.807005314752596e-12
0.011000290147540625, 1.8067435710401865e-12
0.01100535764185664, 1.8064809860932345e-12
0.011010427470610961, 1.8062175588184424e-12
0.011015499634878988, 1.8059532881212234e-12
0.011020574135736618, 1.8056881729057036e-12
0.011025650974260242, 1.8054222120747178e-12
0.011030730151526759, 1.805155404529809e-12
0.011035811668613553, 1.8048877491712255e-12
0.011040895526598506, 1.804619244897922e-12
0.01104598172655999, 1.804349890607556e-12
0.011051070269576899, 1.8040796851964871e-12
0.011056161156728592, 1.803808627559775e-12
0.011061254389094945, 1.8035367165911803e-12
0.01106634996775632, 1.803263951183158e-12
0.011071447893793593, 1.8029903302268614e-12
0.011076548168288122, 1.8027158526121369e-12
0.011081650792321762, 1.8024405172275252e-12
0.011086755766976887, 1.8021643229602576e-12
0.01109186309333635, 1.8018872686962552e-12
0.011096972772483506, 1.8016093533201275e-12
0.011102084805502213, 1.801330575715171e-12
0.011107199193476823, 1.8010509347633695e-12
0.011112315937492201, 1.8007704293453876e-12
0.011117435038633699, 1.800489058340574e-12
0.011122556497987162, 1.800206820626958e-12
0.01112768031663896, 1.7999237150812478e-12
0.011132806495675945, 1.7996397405788299e-12
0.011137935036185471, 1.7993548959937668e-12
0.01114306593925539, 1.799069180198796e-12
0.011148199205974072, 1.7987825920653282e-12
0.011153334837430372, 1.798495130463444e-12
0.011158472834713652, 1.7982067942618978e-12
0.011163613198913768, 1.7979175823281095e-12
0.011168755931121101, 1.7976274935281668e-12
0.011173901032426508, 1.7973365267268238e-12
0.011179048503921363, 1.7970446807874977e-12
0.011184198346697533, 1.7967519545722684e-12
0.011189350561847404, 1.7964583469418768e-12
0.01119450515046385, 1.7961638567557227e-12
0.011199662113640256, 1.7958684828718645e-12
0.0112048214524705, 1.7955722241470165e-12
0.011209983168048986, 1.795275079436547e-12
0.0112151472614706, 1.7949770475944784e-12
0.011220313733830745, 1.7946781274734844e-12
0.011225482586225317, 1.7943783179248885e-12
0.011230653819750734, 1.794077617798663e-12
0.011235827435503906, 1.7937760259434265e-12
0.011241003434582252, 1.7934735412064441e-12
0.01124618181808369, 1.793170162433624e-12
0.011251362587106661, 1.7928658884695157e-12
0.011256545742750096, 1.7925607181573114e-12
0.011261731286113437, 1.79225465033884e-12
0.01126691921829663, 1.791947683854571e-12
0.011272109540400137, 1.7916398175436065e-12
0.01127730225352492, 1.7913310502436847e-12
0.011282497358772443, 1.7910213807911767e-12
0.011287694857244682, 1.7907108080210846e-12
0.011292894750044134, 1.7903993307670392e-12
0.011298097038273782, 1.790086947861301e-12
0.011303301723037128, 1.7897736581347553e-12
0.011308508805438178, 1.7894594604169147e-12
0.011313718286581459, 1.7891443535359118e-12
0.01131893016757199, 1.7888283363185036e-12
0.011324144449515312, 1.7885114075900651e-12
0.011329361133517459, 1.7881935661745929e-12
0.011334580220684998, 1.7878748108946958e-12
0.01133980171212499, 1.7875551405716027e-12
0.011345025608945005, 1.7872345540251536e-12
0.011350251912253126, 1.7869130500738017e-12
0.011355480623157957, 1.7865906275346094e-12
0.011360711742768597, 1.7862672852232495e-12
0.011365945272194663, 1.7859430219540008e-12
0.011371181212546278, 1.7856178365397493e-12
0.011376419564934093, 1.785291727791984e-12
0.011381660330469251, 1.7849646945207962e-12
0.011386903510263415, 1.7846367355348797e-12
0.011392149105428755, 1.7843078496415251e-12
0.011397397117077969, 1.7839780356466228e-12
0.01140264754632425, 1.783647292354658e-12
0.011407900394281311, 1.7833156185687105e-12
0.01141315566206337, 1.782983013090454e-12
0.011418413350785181, 1.7826494747201514e-12
0.011423673461561987, 1.7823150022566567e-12
0.011428935995509556, 1.7819795944974104e-12
0.011434200953744162, 1.7816432502384422e-12
0.01143946833738261, 1.7813059682743624e-12
0.011444738147542204, 1.780967747398366e-12
0.011450010385340766, 1.7806285864022318e-12
0.011455285051896628, 1.7802884840763148e-12
0.011460562148328659, 1.779947439209549e-12
0.01146584167575622, 1.779605450589446e-12
0.011471123635299188, 1.779262517002092e-12
0.011476408028077976, 1.7789186372321454e-12
0.011481694855213496, 1.7785738100628363e-12
0.011486984117827182, 1.7782280342759653e-12
0.011492275817040981, 1.7778813086519015e-12
0.011497569953977356, 1.77753363196958e-12
0.011502866529759301, 1.7771850030064998e-12
0.011508165545510311, 1.7768354205387253e-12
0.011513467002354399, 1.7764848833408807e-12
0.011518770901416113, 1.776133390186151e-12
0.011524077243820501, 1.7757809398462797e-12
0.011529386030693136, 1.7754275310915659e-12
0.011534697263160105, 1.7750731626908643e-12
0.011540010942348026, 1.7747178334115844e-12
0.011545327069384024, 1.7743615420196834e-12
0.011550645645395747, 1.7740042872796727e-12
0.011555966671511356, 1.77364606795461e-12
0.011561290148859552, 1.7732868828060986e-12
0.011566616078569535, 1.7729267305942884e-12
0.01157194446177103, 1.7725656100778725e-12
0.011577275299594283, 1.7722035200140845e-12
0.011582608593170073, 1.7718404591586981e-12
0.011587944343629683, 1.7714764262660268e-12
0.011593282552104924, 1.7711114200889176e-12
0.01159862321972812, 1.7707454393787553e-12
0.01160396634763214, 1.7703784828854565e-12
0.011609311936950351, 1.770010549357469e-12
0.011614659988816653, 1.7696416375417705e-12
0.011620010504365457, 1.769271746183867e-12
0.01162536348473172, 1.768900874027791e-12
0.0116307189310509, 1.7685290198160993e-12
0.011636076844458984, 1.7681561822898713e-12
0.01164143722609248, 1.767782360188709e-12
0.011646800077088435, 1.7674075522507324e-12
0.011652165398584402, 1.7670317572125797e-12
0.011657533191718465, 1.7666549738094066e-12
0.011662903457629223, 1.7662772007748815e-12
0.011668276197455823, 1.7658984368411853e-12
0.011673651412337912, 1.7655186807390116e-12
0.011679029103415674, 1.7651379311975624e-12
0.01168440927182981, 1.764756186944547e-12
0.011689791918721566, 1.7643734467061802e-12
0.01169517704523269, 1.7639897092071819e-12
0.011700564652505468, 1.7636049731707738e-12
0.011705954741682708, 1.7632192373186788e-12
0.011711347313907753, 1.7628325003711174e-12
0.011716742370324464, 1.7624447610468083e-12
0.011722139912077231, 1.7620560180629657e-12
0.011727539940310965, 1.7616662701352977e-12
0.011732942456171123, 1.7612755159780038e-12
0.011738347460803673, 1.7608837543037727e-12
0.011743754955355113, 1.7604909838237839e-12
0.01174916494097247, 1.7600972032477035e-12
0.011754577418803308, 1.7597024112836802e-12
0.011759992389995711, 1.7593066066383475e-12
0.011765409855698293, 1.7589097880168212e-12
0.011770829817060192, 1.7585119541226963e-12
0.01177625227523109, 1.758113103658045e-12
0.01178167723136119, 1.7577132353234152e-12
0.011787104686601218, 1.7573123478178322e-12
0.011792534642102436, 1.756910439838792e-12
0.011797967099016647, 1.7565075100822609e-12
0.011803402058496169, 1.7561035572426759e-12
0.011808839521693856, 1.7556985800129416e-12
0.011814279489763088, 1.7552925770844266e-12
0.011819721963857796, 1.7548855471469649e-12
0.01182516694513242, 1.7544774888888522e-12
0.011830614434741942, 1.7540684009968446e-12
0.011836064433841867, 1.7536582821561566e-12
0.011841516943588254, 1.7532471310504598e-12
0.011846971965137674, 1.75283494636188e-12
0.011852429499647234, 1.7524217267709986e-12
0.011857889548274577, 1.7520074709568459e-12
0.011863352112177886, 1.751592177596903e-12
0.011868817192515866, 1.7511758453670982e-12
0.011874284790447756, 1.7507584729418075e-12
0.011879754907133349, 1.7503400589938492e-12
0.011885227543732946, 1.7499206021944862e-12
0.011890702701407395, 1.7495001012134199e-12
0.011896180381318079, 1.7490785547187934e-12
0.011901660584626906, 1.7486559613771843e-12
0.011907143312496342, 1.748232319853607e-12
0.011912628566089368, 1.7478076288115084e-12
0.011918116346569498, 1.7473818869127687e-12
0.011923606655100808, 1.7469550928176966e-12
0.011929099492847883, 1.7465272451850294e-12
0.011934594860975856, 1.7460983426719317e-12
0.011940092760650394, 1.7456683839339907e-12
0.011945593193037701, 1.7452373676252174e-12
0.011951096159304526, 1.7448052923980436e-12
0.011956601660618148, 1.7443721569033198e-12
0.011962109698146374, 1.7439379597903146e-12
0.011967620273057575, 1.7435026997067095e-12
0.011973133386520639, 1.7430663752986036e-12
0.011978649039704997, 1.7426289852105043e-12
0.011984167233780615, 1.7421905280853316e-12
0.011989687969918016, 1.7417510025644096e-12
0.011995211249288243, 1.7413104072874731e-12
0.012000737073062885, 1.740868740892659e-12
0.012006265442414064, 1.7404260020165062e-12
0.012011796358514461, 1.739982189293957e-12
0.012017329822537278, 1.739537301358349e-12
0.012022865835656265, 1.7390913368414202e-12
0.012028404399045707, 1.7386442943733016e-12
0.012033945513880444, 1.7381961725825178e-12
0.012039489181335846, 1.7377469700959858e-12
0.012045035402587823, 1.7372966855390118e-12
0.012050584178812827, 1.7368453175352899e-12
0.012056135511187865, 1.7363928647068994e-12
0.012061689400890474, 1.7359393256743045e-12
0.012067245849098731, 1.7354846990563512e-12
0.012072804856991259, 1.735028983470267e-12
0.012078366425747234, 1.7345721775316557e-12
0.012083930556546362, 1.7341142798544987e-12
0.0120894972505689, 1.7336552890511525e-12
0.012095066508995637, 1.7331952037323482e-12
0.012100638333007927, 1.732734022507183e-12
0.012106212723787651, 1.7322717439831279e-12
0.012111789682517238, 1.7318083667660187e-12
0.012117369210379661, 1.7313438894600592e-12
0.012122951308558448, 1.730878310667812e-12
0.01212853597823766, 1.7304116289902052e-12
0.01213412322060191, 1.7299438430265261e-12
0.012139713036836346, 1.7294749513744187e-12
0.012145305428126684, 1.729004952629883e-12
0.012150900395659164, 1.728533845387274e-12
0.012156497940620585, 1.7280616282392984e-12
0.012162098064198282, 1.727588299777013e-12
0.012167700767580156, 1.7271138585898218e-12
0.012173306051954635, 1.7266383032654779e-12
0.012178913918510705, 1.7261616323900763e-12
0.01218452436843789, 1.7256838445480566e-12
0.012190137402926283, 1.7252049383221975e-12
0.012195753023166505, 1.7247249122936176e-12
0.012201371230349731, 1.724243765041772e-12
0.012206992025667681, 1.7237614951444516e-12
0.012212615410312641, 1.7232781011777786e-12
0.012218241385477427, 1.7227935817162078e-12
0.012223869952355412, 1.7223079353325226e-12
0.012229501112140512, 1.7218211605978343e-12
0.012235134866027213, 1.7213332560815788e-12
0.01224077121521053, 1.7208442203515162e-12
0.012246410160886036, 1.7203540519737262e-12
0.01225205170424985, 1.7198627495126124e-12
0.012257695846498657, 1.7193703115308904e-12
0.01226334258882968, 1.718876736589596e-12
0.012268991932440692, 1.7183820232480773e-12
0.012274643878530023, 1.717886170063993e-12
0.01228029842829656, 1.7173891755933134e-12
0.012285955582939736, 1.7168910383903157e-12
